
time (s)       getData("/nvtc getData("/SNMh getData("/SNMr getData("/SNMw

 0.000000e+00   0.000000e+00   7.899386e-01   7.899387e-01   2.856317e-01  
 1.636157e-11   1.292564e-04   7.899409e-01   7.899409e-01   2.854808e-01  
 2.845343e-11   2.247821e-04   7.899407e-01   7.899408e-01   2.853615e-01  
 4.625350e-11   3.654026e-04   7.899405e-01   7.899405e-01   2.851853e-01  
 8.185363e-11   6.466436e-04   7.899400e-01   7.899400e-01   2.848336e-01  
 1.530538e-10   1.209125e-03   7.899390e-01   7.899390e-01   2.841328e-01  
 2.954544e-10   2.334089e-03   7.899368e-01   7.899369e-01   2.827420e-01  
 5.802554e-10   4.584018e-03   7.899324e-01   7.899325e-01   2.800046e-01  
 1.149857e-09   9.083874e-03   7.899226e-01   7.899227e-01   2.747102e-01  
 1.863580e-09   1.472228e-02   7.899084e-01   7.899085e-01   2.684201e-01  
 2.641725e-09   2.086963e-02   7.898901e-01   7.898901e-01   2.619899e-01  
 3.481325e-09   2.750247e-02   7.898662e-01   7.898663e-01   2.555219e-01  
 4.373043e-09   3.454704e-02   7.898354e-01   7.898355e-01   2.491330e-01  
 5.317389e-09   4.200737e-02   7.897951e-01   7.897953e-01   2.428339e-01  
 6.317389e-09   4.990737e-02   7.897420e-01   7.897421e-01   2.366028e-01  
 7.317389e-09   5.780737e-02   7.896754e-01   7.896756e-01   2.307428e-01  
 8.317389e-09   6.570737e-02   7.895921e-01   7.895923e-01   2.251848e-01  
 9.317389e-09   7.360737e-02   7.894879e-01   7.894883e-01   2.198723e-01  
 1.031738e-08   8.150737e-02   7.893581e-01   7.893585e-01   2.147601e-01  
 1.131738e-08   8.940737e-02   7.891965e-01   7.891970e-01   2.098117e-01  
 1.231738e-08   9.730737e-02   7.889961e-01   7.889967e-01   2.049978e-01  
 1.331738e-08   1.052073e-01   7.887483e-01   7.887491e-01   2.002944e-01  
 1.431738e-08   1.131073e-01   7.884433e-01   7.884443e-01   1.956816e-01  
 1.531738e-08   1.210073e-01   7.880699e-01   7.880711e-01   1.911425e-01  
 1.631738e-08   1.289073e-01   7.876153e-01   7.876168e-01   1.866624e-01  
 1.731738e-08   1.368073e-01   7.870658e-01   7.870676e-01   1.822282e-01  
 1.831738e-08   1.447073e-01   7.864067e-01   7.864090e-01   1.778280e-01  
 1.931738e-08   1.526073e-01   7.856233e-01   7.856262e-01   1.734503e-01  
 2.031738e-08   1.605073e-01   7.847011e-01   7.847046e-01   1.690846e-01  
 2.131738e-08   1.684073e-01   7.836267e-01   7.836310e-01   1.647202e-01  
 2.231738e-08   1.763073e-01   7.823885e-01   7.823937e-01   1.603472e-01  
 2.331738e-08   1.842073e-01   7.809771e-01   7.809834e-01   1.559560e-01  
 2.431738e-08   1.921073e-01   7.793859e-01   7.793933e-01   1.515374e-01  
 2.531738e-08   2.000073e-01   7.776104e-01   7.776192e-01   1.470835e-01  
 2.631738e-08   2.079073e-01   7.756488e-01   7.756590e-01   1.425871e-01  
 2.731738e-08   2.158073e-01   7.735004e-01   7.735122e-01   1.380427e-01  
 2.831738e-08   2.237073e-01   7.711655e-01   7.711791e-01   1.334460e-01  
 2.931738e-08   2.316073e-01   7.686444e-01   7.686599e-01   1.287944e-01  
 3.031738e-08   2.395073e-01   7.659363e-01   7.659540e-01   1.240870e-01  
 3.131738e-08   2.474073e-01   7.630391e-01   7.630592e-01   1.193240e-01  
 3.231738e-08   2.553073e-01   7.599479e-01   7.599707e-01   1.145071e-01  
 3.331738e-08   2.632073e-01   7.566546e-01   7.566807e-01   1.096388e-01  
 3.431738e-08   2.711073e-01   7.531473e-01   7.531772e-01   1.047230e-01  
 3.531738e-08   2.790073e-01   7.494082e-01   7.494429e-01   9.976422e-02  
 3.631738e-08   2.869073e-01   7.454126e-01   7.454530e-01   9.476835e-02  
 3.731738e-08   2.948073e-01   7.411243e-01   7.411722e-01   8.974277e-02  
 3.831738e-08   3.027073e-01   7.364902e-01   7.365479e-01   8.469719e-02  
 3.931738e-08   3.106073e-01   7.314277e-01   7.314987e-01   7.964519e-02  
 4.031738e-08   3.185073e-01   7.257987e-01   7.258892e-01   7.460707e-02  
 4.131738e-08   3.264073e-01   7.193493e-01   7.194712e-01   6.961505e-02  
 4.231738e-08   3.343073e-01   7.115453e-01   7.117264e-01   6.472179e-02  
 4.284180e-08   3.384502e-01   7.065095e-01   7.067498e-01   6.222181e-02  
 4.329203e-08   3.420070e-01   7.013081e-01   7.016354e-01   6.012686e-02  
 4.369835e-08   3.452170e-01   6.955024e-01   6.959707e-01   5.828670e-02  
 4.399283e-08   3.475434e-01   6.902708e-01   6.909193e-01   5.698788e-02  
 4.420475e-08   3.492175e-01   6.857390e-01   6.865933e-01   5.607323e-02  
 4.438004e-08   3.506023e-01   6.813557e-01   6.824590e-01   5.533013e-02  
 4.454392e-08   3.518969e-01   6.766224e-01   6.780546e-01   5.464693e-02  
 4.470121e-08   3.531396e-01   6.714094e-01   6.732805e-01   5.400200e-02  
 4.486374e-08   3.544235e-01   6.652618e-01   6.677591e-01   5.334699e-02  
 4.507340e-08   3.560798e-01   6.561444e-01   6.597975e-01   5.251950e-02  
 4.529414e-08   3.578237e-01   6.451660e-01   6.505961e-01   5.166983e-02  
 4.545456e-08   3.590910e-01   6.364068e-01   6.435795e-01   5.106628e-02  
 4.557761e-08   3.600631e-01   6.293081e-01   6.381179e-01   5.061128e-02  
 4.570023e-08   3.610318e-01   6.219515e-01   6.326778e-01   5.016473e-02  
 4.584230e-08   3.621541e-01   6.131220e-01   6.264481e-01   4.965579e-02  
 4.598834e-08   3.633079e-01   6.037513e-01   6.201922e-01   4.914199e-02  
 4.613766e-08   3.644875e-01   5.939065e-01   6.140025e-01   4.862631e-02  
 4.630999e-08   3.658489e-01   5.822600e-01   6.071586e-01   4.804303e-02  
 4.652801e-08   3.675713e-01   5.671568e-01   5.989868e-01   4.732288e-02  
 4.681545e-08   3.698421e-01   5.467230e-01   5.890232e-01   4.640252e-02  
 4.715143e-08   3.724963e-01   5.222358e-01   5.784266e-01   4.536636e-02  
 4.751900e-08   3.754001e-01   4.948700e-01   5.679181e-01   4.427817e-02  
 4.792669e-08   3.786209e-01   4.639999e-01   5.573217e-01   4.312189e-02  
 4.838410e-08   3.822344e-01   4.289399e-01   5.464666e-01   4.188168e-02  
 4.889953e-08   3.863062e-01   3.891794e-01   5.352420e-01   4.054836e-02  
 4.948409e-08   3.909243e-01   3.441515e-01   5.235012e-01   3.910824e-02  
 5.014993e-08   3.961844e-01   2.935186e-01   5.111108e-01   3.754863e-02  
 5.090889e-08   4.021802e-01   2.375469e-01   4.979727e-01   3.586079e-02  
 5.162161e-08   4.078107e-01   1.877705e-01   4.863907e-01   3.435095e-02  
 5.221975e-08   4.125360e-01   1.492892e-01   4.771344e-01   3.313312e-02  
 5.253468e-08   4.150239e-01   1.309463e-01   4.724092e-01   3.250840e-02  
 5.280562e-08   4.171644e-01   1.168066e-01   4.684185e-01   3.197947e-02  
 5.304215e-08   4.190330e-01   1.061468e-01   4.649880e-01   3.152393e-02  
 5.323742e-08   4.205756e-01   9.873617e-02   4.621917e-01   3.115207e-02  
 5.345271e-08   4.222764e-01   9.202445e-02   4.591444e-01   3.074639e-02  
 5.367699e-08   4.240482e-01   8.644745e-02   4.560081e-01   3.032840e-02  
 5.386412e-08   4.255266e-01   8.267023e-02   4.534202e-01   2.998319e-02  
 5.402958e-08   4.268337e-01   7.984077e-02   4.511532e-01   2.968060e-02  
 5.420923e-08   4.282529e-01   7.718639e-02   4.487133e-01   2.935476e-02  
 5.441958e-08   4.299146e-01   7.450349e-02   4.458844e-01   2.897679e-02  
 5.465252e-08   4.317549e-01   7.193560e-02   4.427856e-01   2.856256e-02  
 5.491043e-08   4.337924e-01   6.945948e-02   4.393944e-01   2.810911e-02  
 5.521557e-08   4.362030e-01   6.689594e-02   4.354345e-01   2.757951e-02  
 5.558907e-08   4.391536e-01   6.414856e-02   4.306607e-01   2.694105e-02  
 5.604458e-08   4.427522e-01   6.121060e-02   4.249422e-01   2.617652e-02  
 5.660612e-08   4.471883e-01   5.802344e-02   4.180396e-01   2.525451e-02  
 5.731778e-08   4.528105e-01   5.445746e-02   4.095085e-01   2.411706e-02  
 5.823660e-08   4.600691e-01   5.038451e-02   3.988237e-01   2.269712e-02  
 5.923660e-08   4.679691e-01   4.642208e-02   3.875797e-01   2.121053e-02  
 6.023660e-08   4.758691e-01   4.281396e-02   3.767020e-01   1.978189e-02  
 6.123660e-08   4.837691e-01   3.947930e-02   3.661619e-01   1.840835e-02  
 6.223660e-08   4.916691e-01   3.636822e-02   3.559363e-01   1.708759e-02  
 6.323660e-08   4.995691e-01   3.344762e-02   3.460068e-01   1.581772e-02  
 6.423660e-08   5.074691e-01   3.069449e-02   3.363590e-01   1.459728e-02  
 6.523660e-08   5.153691e-01   2.809240e-02   3.269817e-01   1.342519e-02  
 6.623660e-08   5.232691e-01   2.562942e-02   3.178667e-01   1.230075e-02  
 6.723660e-08   5.311691e-01   2.329697e-02   3.090082e-01   1.122368e-02  
 6.823660e-08   5.390691e-01   2.108905e-02   3.004030e-01   1.019409e-02  
 6.923660e-08   5.469691e-01   1.900178e-02   2.920499e-01   9.212525e-03  
 7.023660e-08   5.548691e-01   1.703299e-02   2.839493e-01   8.279892e-03  
 7.123660e-08   5.627691e-01   1.518193e-02   2.761035e-01   7.397474e-03  
 7.223660e-08   5.706691e-01   1.344897e-02   2.685161e-01   6.566823e-03  
 7.323660e-08   5.785691e-01   1.183522e-02   2.611918e-01   5.789649e-03  
 7.423660e-08   5.864691e-01   1.034215e-02   2.541365e-01   5.067663e-03  
 7.523660e-08   5.943691e-01   8.971138e-03   2.473570e-01   4.402374e-03  
 7.623660e-08   6.022691e-01   7.722948e-03   2.408616e-01   3.794879e-03  
 7.723660e-08   6.101691e-01   6.597320e-03   2.346604e-01   3.245639e-03  
 7.823660e-08   6.180691e-01   5.592549e-03   2.287666e-01   2.754310e-03  
 7.923660e-08   6.259691e-01   4.705235e-03   2.231980e-01   2.319617e-03  
 8.023660e-08   6.338691e-01   3.930199e-03   2.179777e-01   1.939329e-03  
 8.123660e-08   6.417691e-01   3.260592e-03   2.131348e-01   1.610321e-03  
 8.223660e-08   6.496691e-01   2.688179e-03   2.087018e-01   1.328731e-03  
 8.323660e-08   6.575691e-01   2.203748e-03   2.047087e-01   1.090163e-03  
 8.423660e-08   6.654691e-01   1.797571e-03   2.011744e-01   8.899335e-04  
 8.523660e-08   6.733691e-01   1.459864e-03   1.980974e-01   7.233014e-04  
 8.623660e-08   6.812691e-01   1.181177e-03   1.954540e-01   5.856682e-04  
 8.723660e-08   6.891691e-01   9.526894e-04   1.932014e-01   4.727292e-04  
 8.823660e-08   6.970691e-01   7.664030e-04   1.912875e-01   3.805730e-04  
 8.923660e-08   7.049691e-01   6.152410e-04   1.896589e-01   3.057317e-04  
 9.023660e-08   7.128691e-01   4.930655e-04   1.882667e-01   2.451933e-04  
 9.123660e-08   7.207691e-01   3.946411e-04   1.870688e-01   1.963855e-04  
 9.223660e-08   7.286691e-01   3.155635e-04   1.860305e-01   1.571416e-04  
 9.323660e-08   7.365691e-01   2.521688e-04   1.851237e-01   1.256573e-04  
 9.423660e-08   7.444691e-01   2.014366e-04   1.843259e-01   1.004435e-04  
 9.523660e-08   7.523691e-01   1.608956e-04   1.836192e-01   8.028060e-05  
 9.623660e-08   7.602691e-01   1.285354e-04   1.829890e-01   6.417553e-05  
 9.723660e-08   7.681691e-01   1.027288e-04   1.824237e-01   5.132368e-05  
 9.823660e-08   7.760691e-01   8.216330e-05   1.819140e-01   4.107556e-05  
 9.923660e-08   7.839691e-01   6.578384e-05   1.814521e-01   3.290854e-05  
 1.000000e-07   7.900000e-01   5.556630e-05   1.811277e-01   2.781134e-05  
