
time (s)       getData("/nvtc getData("/SNMh getData("/SNMr getData("/SNMw

 0.000000e+00   0.000000e+00   1.049853e+00   1.049853e+00   4.203764e-01  
 1.436198e-11   1.508008e-04   1.049856e+00   1.049856e+00   4.202226e-01  
 2.477099e-11   2.600954e-04   1.049855e+00   1.049855e+00   4.201433e-01  
 4.067046e-11   4.270398e-04   1.049855e+00   1.049855e+00   4.200236e-01  
 7.246938e-11   7.609285e-04   1.049853e+00   1.049853e+00   4.197845e-01  
 1.360672e-10   1.428706e-03   1.049851e+00   1.049851e+00   4.193065e-01  
 2.632629e-10   2.764261e-03   1.049845e+00   1.049845e+00   4.183517e-01  
 3.553323e-10   3.730989e-03   1.049841e+00   1.049841e+00   4.176618e-01  
 4.685278e-10   4.919542e-03   1.049835e+00   1.049835e+00   4.168148e-01  
 5.720289e-10   6.006304e-03   1.049830e+00   1.049830e+00   4.160416e-01  
 6.705019e-10   7.040270e-03   1.049825e+00   1.049825e+00   4.153072e-01  
 7.914272e-10   8.309985e-03   1.049819e+00   1.049819e+00   4.144070e-01  
 9.013192e-10   9.463852e-03   1.049813e+00   1.049813e+00   4.135905e-01  
 1.009250e-09   1.059713e-02   1.049807e+00   1.049807e+00   4.127901e-01  
 1.122461e-09   1.178584e-02   1.049800e+00   1.049800e+00   4.119522e-01  
 1.238841e-09   1.300783e-02   1.049793e+00   1.049794e+00   4.110927e-01  
 1.358531e-09   1.426458e-02   1.049786e+00   1.049786e+00   4.102107e-01  
 1.482762e-09   1.556900e-02   1.049778e+00   1.049778e+00   4.092974e-01  
 1.611857e-09   1.692450e-02   1.049770e+00   1.049770e+00   4.083507e-01  
 1.746119e-09   1.833425e-02   1.049760e+00   1.049761e+00   4.073687e-01  
 1.886065e-09   1.980368e-02   1.049750e+00   1.049751e+00   4.063480e-01  
 2.032207e-09   2.133818e-02   1.049740e+00   1.049740e+00   4.052852e-01  
 2.185086e-09   2.294341e-02   1.049728e+00   1.049728e+00   4.041769e-01  
 2.345333e-09   2.462599e-02   1.049715e+00   1.049715e+00   4.030190e-01  
 2.513664e-09   2.639347e-02   1.049700e+00   1.049701e+00   4.018070e-01  
 2.690898e-09   2.825443e-02   1.049685e+00   1.049685e+00   4.005357e-01  
 2.877981e-09   3.021880e-02   1.049667e+00   1.049667e+00   3.991991e-01  
 3.076012e-09   3.229812e-02   1.049647e+00   1.049648e+00   3.977903e-01  
 3.286280e-09   3.450594e-02   1.049625e+00   1.049626e+00   3.963012e-01  
 3.510306e-09   3.685821e-02   1.049600e+00   1.049601e+00   3.947222e-01  
 3.749905e-09   3.937401e-02   1.049572e+00   1.049572e+00   3.930422e-01  
 4.007264e-09   4.207627e-02   1.049539e+00   1.049539e+00   3.912476e-01  
 4.285043e-09   4.499295e-02   1.049500e+00   1.049501e+00   3.893219e-01  
 4.586530e-09   4.815857e-02   1.049455e+00   1.049456e+00   3.872450e-01  
 4.915842e-09   5.161634e-02   1.049402e+00   1.049402e+00   3.849917e-01  
 5.278225e-09   5.542137e-02   1.049336e+00   1.049337e+00   3.825301e-01  
 5.680502e-09   5.964527e-02   1.049256e+00   1.049257e+00   3.798187e-01  
 6.131762e-09   6.438350e-02   1.049155e+00   1.049155e+00   3.768025e-01  
 6.644478e-09   6.976702e-02   1.049023e+00   1.049024e+00   3.734064e-01  
 7.236420e-09   7.598241e-02   1.048847e+00   1.048848e+00   3.695231e-01  
 7.934191e-09   8.330901e-02   1.048601e+00   1.048602e+00   3.649926e-01  
 8.780507e-09   9.219532e-02   1.048236e+00   1.048237e+00   3.595569e-01  
 9.780507e-09   1.026953e-01   1.047690e+00   1.047692e+00   3.532025e-01  
 1.078050e-08   1.131953e-01   1.046995e+00   1.046998e+00   3.469031e-01  
 1.178050e-08   1.236953e-01   1.046120e+00   1.046124e+00   3.406376e-01  
 1.278050e-08   1.341953e-01   1.045035e+00   1.045039e+00   3.343845e-01  
 1.378050e-08   1.446953e-01   1.043710e+00   1.043716e+00   3.281215e-01  
 1.478050e-08   1.551953e-01   1.042123e+00   1.042130e+00   3.218258e-01  
 1.578050e-08   1.656953e-01   1.040256e+00   1.040265e+00   3.154747e-01  
 1.678050e-08   1.761953e-01   1.038100e+00   1.038112e+00   3.090463e-01  
 1.778050e-08   1.866953e-01   1.035658e+00   1.035672e+00   3.025208e-01  
 1.878050e-08   1.971953e-01   1.032938e+00   1.032954e+00   2.958815e-01  
 1.978050e-08   2.076953e-01   1.029953e+00   1.029972e+00   2.891159e-01  
 2.078050e-08   2.181953e-01   1.026719e+00   1.026741e+00   2.822159e-01  
 2.178050e-08   2.286953e-01   1.023254e+00   1.023280e+00   2.751779e-01  
 2.278050e-08   2.391953e-01   1.019572e+00   1.019601e+00   2.680018e-01  
 2.378050e-08   2.496953e-01   1.015684e+00   1.015718e+00   2.606903e-01  
 2.478050e-08   2.601953e-01   1.011597e+00   1.011636e+00   2.532476e-01  
 2.578050e-08   2.706953e-01   1.007316e+00   1.007361e+00   2.456792e-01  
 2.678050e-08   2.811953e-01   1.002840e+00   1.002893e+00   2.379907e-01  
 2.778050e-08   2.916953e-01   9.981689e-01   9.982302e-01   2.301883e-01  
 2.878050e-08   3.021953e-01   9.932969e-01   9.933689e-01   2.222784e-01  
 2.978050e-08   3.126953e-01   9.882185e-01   9.883036e-01   2.142676e-01  
 3.078050e-08   3.231953e-01   9.829264e-01   9.830277e-01   2.061633e-01  
 3.178050e-08   3.336953e-01   9.774113e-01   9.775328e-01   1.979733e-01  
 3.278050e-08   3.441953e-01   9.716622e-01   9.718090e-01   1.897065e-01  
 3.378050e-08   3.546953e-01   9.656650e-01   9.658439e-01   1.813730e-01  
 3.478050e-08   3.651953e-01   9.594018e-01   9.596218e-01   1.729839e-01  
 3.578050e-08   3.756953e-01   9.528480e-01   9.531214e-01   1.645526e-01  
 3.678050e-08   3.861953e-01   9.459695e-01   9.463135e-01   1.560948e-01  
 3.778050e-08   3.966953e-01   9.387159e-01   9.391548e-01   1.476302e-01  
 3.878050e-08   4.071953e-01   9.310093e-01   9.315795e-01   1.391857e-01  
 3.978050e-08   4.176953e-01   9.227218e-01   9.234814e-01   1.308005e-01  
 4.078050e-08   4.281953e-01   9.136266e-01   9.146763e-01   1.225391e-01  
 4.178050e-08   4.386953e-01   9.032769e-01   9.048178e-01   1.145140e-01  
 4.278050e-08   4.491953e-01   8.906316e-01   8.931691e-01   1.069183e-01  
 4.337585e-08   4.554464e-01   8.810188e-01   8.847724e-01   1.027093e-01  
 4.389882e-08   4.609377e-01   8.700126e-01   8.758818e-01   9.925885e-02  
 4.431678e-08   4.653262e-01   8.583147e-01   8.673600e-01   9.668233e-02  
 4.464315e-08   4.687530e-01   8.463863e-01   8.596378e-01   9.478369e-02  
 4.490768e-08   4.715306e-01   8.344481e-01   8.526939e-01   9.331548e-02  
 4.519047e-08   4.744999e-01   8.192662e-01   8.447062e-01   9.181255e-02  
 4.546633e-08   4.773965e-01   8.021667e-01   8.365387e-01   9.040864e-02  
 4.571764e-08   4.800352e-01   7.848799e-01   8.289490e-01   8.917929e-02  
 4.594574e-08   4.824303e-01   7.680022e-01   8.220503e-01   8.810130e-02  
 4.618799e-08   4.849739e-01   7.490371e-01   8.147933e-01   8.699282e-02  
 4.647643e-08   4.880025e-01   7.252815e-01   8.063135e-01   8.571760e-02  
 4.680850e-08   4.914892e-01   6.966267e-01   7.968187e-01   8.430366e-02  
 4.718400e-08   4.954320e-01   6.628705e-01   7.864474e-01   8.276660e-02  
 4.760657e-08   4.998690e-01   6.235692e-01   7.752253e-01   8.110524e-02  
 4.808812e-08   5.049252e-01   5.776112e-01   7.629687e-01   7.928786e-02  
 4.862189e-08   5.105299e-01   5.258875e-01   7.499690e-01   7.735349e-02  
 4.917695e-08   5.163580e-01   4.720166e-01   7.370214e-01   7.541756e-02  
 4.973741e-08   5.222429e-01   4.183634e-01   7.244608e-01   7.352914e-02  
 5.030198e-08   5.281708e-01   3.659246e-01   7.122644e-01   7.168483e-02  
 5.086854e-08   5.341197e-01   3.157972e-01   7.004302e-01   6.988485e-02  
 5.140928e-08   5.397974e-01   2.711439e-01   6.894723e-01   6.820888e-02  
 5.189050e-08   5.448502e-01   2.348269e-01   6.799699e-01   6.674837e-02  
 5.231808e-08   5.493398e-01   2.061191e-01   6.717068e-01   6.547308e-02  
 5.269630e-08   5.533112e-01   1.844784e-01   6.645285e-01   6.436137e-02  
 5.300955e-08   5.566003e-01   1.699083e-01   6.586710e-01   6.345164e-02  
 5.329559e-08   5.596036e-01   1.593971e-01   6.533880e-01   6.262924e-02  
 5.357068e-08   5.624921e-01   1.514681e-01   6.483637e-01   6.184550e-02  
 5.381878e-08   5.650971e-01   1.457366e-01   6.438782e-01   6.114451e-02  
 5.404863e-08   5.675106e-01   1.413172e-01   6.397599e-01   6.049987e-02  
 5.429601e-08   5.701081e-01   1.372607e-01   6.353663e-01   5.981108e-02  
 5.458460e-08   5.731383e-01   1.331972e-01   6.302901e-01   5.901398e-02  
 5.492186e-08   5.766796e-01   1.290993e-01   6.244224e-01   5.809092e-02  
 5.531417e-08   5.807988e-01   1.249498e-01   6.176810e-01   5.702835e-02  
 5.579237e-08   5.858199e-01   1.205074e-01   6.095803e-01   5.574880e-02  
 5.639898e-08   5.921893e-01   1.155271e-01   5.994793e-01   5.414947e-02  
 5.717987e-08   6.003887e-01   1.098258e-01   5.867470e-01   5.212825e-02  
 5.817987e-08   6.108887e-01   1.032807e-01   5.708575e-01   4.959897e-02  
 5.917987e-08   6.213887e-01   9.730458e-02   5.554031e-01   4.713322e-02  
 6.017987e-08   6.318887e-01   9.172964e-02   5.403575e-01   4.472876e-02  
 6.117987e-08   6.423887e-01   8.646328e-02   5.257010e-01   4.238396e-02  
 6.217987e-08   6.528887e-01   8.144876e-02   5.114190e-01   4.009765e-02  
 6.317987e-08   6.633887e-01   7.664912e-02   4.975008e-01   3.786899e-02  
 6.417987e-08   6.738887e-01   7.203910e-02   4.839394e-01   3.569740e-02  
 6.517987e-08   6.843887e-01   6.760083e-02   4.707303e-01   3.358247e-02  
 6.617987e-08   6.948887e-01   6.332128e-02   4.578715e-01   3.152389e-02  
 6.717987e-08   7.053887e-01   5.919063e-02   4.453631e-01   2.952142e-02  
 6.817987e-08   7.158887e-01   5.520129e-02   4.332072e-01   2.757485e-02  
 6.917987e-08   7.263887e-01   5.134720e-02   4.214075e-01   2.568394e-02  
 7.017987e-08   7.368887e-01   4.762349e-02   4.099702e-01   2.384849e-02  
 7.117987e-08   7.473887e-01   4.402615e-02   3.989035e-01   2.206830e-02  
 7.217987e-08   7.578887e-01   4.055198e-02   3.882191e-01   2.034324e-02  
 7.317987e-08   7.683887e-01   3.719857e-02   3.779324e-01   1.867334e-02  
 7.417987e-08   7.788887e-01   3.396446e-02   3.680645e-01   1.705888e-02  
 7.517987e-08   7.893887e-01   3.084930e-02   3.586438e-01   1.550056e-02  
 7.617987e-08   7.998887e-01   2.785417e-02   3.497081e-01   1.399967e-02  
 7.717987e-08   8.103887e-01   2.498188e-02   3.413069e-01   1.255826e-02  
 7.817987e-08   8.208887e-01   2.223726e-02   3.335016e-01   1.117933e-02  
 7.917987e-08   8.313887e-01   1.962734e-02   3.263614e-01   9.866904e-03  
 8.017987e-08   8.418887e-01   1.716132e-02   3.199523e-01   8.626047e-03  
 8.117987e-08   8.523887e-01   1.485026e-02   3.143190e-01   7.462706e-03  
 8.217987e-08   8.628887e-01   1.270635e-02   3.094672e-01   6.383324e-03  
 8.317987e-08   8.733887e-01   1.074172e-02   3.053574e-01   5.394260e-03  
 8.417987e-08   8.838887e-01   8.966937e-03   3.019154e-01   4.501006e-03  
 8.517987e-08   8.943887e-01   7.389325e-03   2.990498e-01   3.707337e-03  
 8.617987e-08   9.048887e-01   6.011417e-03   2.966683e-01   3.014535e-03  
 8.717987e-08   9.153887e-01   4.829941e-03   2.946869e-01   2.420898e-03  
 8.817987e-08   9.258887e-01   3.835607e-03   2.930331e-01   1.921651e-03  
 8.917987e-08   9.363887e-01   3.013808e-03   2.916463e-01   1.509329e-03  
 9.017987e-08   9.468887e-01   2.346033e-03   2.904769e-01   1.174513e-03  
 9.117987e-08   9.573887e-01   1.811668e-03   2.894843e-01   9.067491e-04  
 9.217987e-08   9.678887e-01   1.389745e-03   2.886358e-01   6.954379e-04  
 9.317987e-08   9.783887e-01   1.060366e-03   2.879053e-01   5.305446e-04  
 9.417987e-08   9.888887e-01   8.056352e-04   2.872717e-01   4.030638e-04  
 9.509766e-08   9.985254e-01   6.242927e-04   2.867611e-01   3.123324e-04  
 9.582963e-08   1.006211e+00   5.086424e-04   2.863953e-01   2.544779e-04  
 9.640312e-08   1.012232e+00   4.329082e-04   2.861312e-01   2.165952e-04  
 9.686360e-08   1.017067e+00   3.802101e-04   2.859321e-01   1.902369e-04  
 9.724100e-08   1.021030e+00   3.417772e-04   2.857768e-01   1.710144e-04  
 9.755842e-08   1.024363e+00   3.124466e-04   2.856514e-01   1.563449e-04  
 9.783270e-08   1.027243e+00   2.891203e-04   2.855467e-01   1.446787e-04  
 9.807490e-08   1.029786e+00   2.699660e-04   2.854570e-01   1.350991e-04  
 9.829247e-08   1.032071e+00   2.538387e-04   2.853784e-01   1.270336e-04  
 9.849068e-08   1.034152e+00   2.399847e-04   2.853084e-01   1.201050e-04  
 9.867323e-08   1.036069e+00   2.278937e-04   2.852454e-01   1.140581e-04  
 9.884282e-08   1.037849e+00   2.172079e-04   2.851879e-01   1.087141e-04  
 9.900145e-08   1.039515e+00   2.076670e-04   2.851351e-01   1.039426e-04  
 9.915066e-08   1.041081e+00   1.990764e-04   2.850863e-01   9.964647e-05  
 9.929165e-08   1.042562e+00   1.912867e-04   2.850409e-01   9.575084e-05  
 9.942539e-08   1.043966e+00   1.841808e-04   2.849984e-01   9.219719e-05  
 9.955266e-08   1.045302e+00   1.776650e-04   2.849586e-01   8.893866e-05  
 9.967412e-08   1.046578e+00   1.716632e-04   2.849211e-01   8.593716e-05  
 9.979032e-08   1.047798e+00   1.661125e-04   2.848857e-01   8.316130e-05  
 9.990173e-08   1.048968e+00   1.609606e-04   2.848521e-01   8.058488e-05  
 1.000000e-07   1.050000e+00   1.565507e-04   2.848228e-01   7.837948e-05  
