
time (s)       getData("/nvtc getData("/SNMh getData("/SNMr getData("/SNMw

 0.000000e+00   0.000000e+00   3.899522e-01   3.899522e-01   1.283115e-01  
 2.285091e-11   8.911855e-05   3.899536e-01   3.899536e-01   1.280614e-01  
 4.049895e-11   1.579459e-04   3.899535e-01   3.899535e-01   1.278453e-01  
 6.427409e-11   2.506689e-04   3.899534e-01   3.899534e-01   1.275505e-01  
 1.115472e-10   4.350343e-04   3.899531e-01   3.899531e-01   1.269641e-01  
 2.060936e-10   8.037651e-04   3.899525e-01   3.899526e-01   1.257953e-01  
 3.951863e-10   1.541226e-03   3.899514e-01   3.899514e-01   1.234739e-01  
 7.733717e-10   3.016149e-03   3.899490e-01   3.899491e-01   1.189031e-01  
 1.272961e-09   4.964550e-03   3.899457e-01   3.899458e-01   1.130384e-01  
 1.799129e-09   7.016603e-03   3.899420e-01   3.899421e-01   1.071214e-01  
 2.320888e-09   9.051463e-03   3.899381e-01   3.899381e-01   1.015708e-01  
 2.822440e-09   1.100751e-02   3.899340e-01   3.899341e-01   9.657999e-02  
 3.297576e-09   1.286054e-02   3.899300e-01   3.899300e-01   9.219616e-02  
 3.751063e-09   1.462914e-02   3.899258e-01   3.899259e-01   8.834007e-02  
 4.190882e-09   1.634444e-02   3.899216e-01   3.899217e-01   8.490748e-02  
 4.624874e-09   1.803701e-02   3.899172e-01   3.899173e-01   8.180700e-02  
 5.060641e-09   1.973650e-02   3.899125e-01   3.899127e-01   7.896212e-02  
 5.505354e-09   2.147088e-02   3.899075e-01   3.899076e-01   7.631163e-02  
 5.965728e-09   2.326633e-02   3.899020e-01   3.899021e-01   7.380779e-02  
 6.448272e-09   2.514826e-02   3.898958e-01   3.898959e-01   7.141276e-02  
 6.959539e-09   2.714220e-02   3.898888e-01   3.898890e-01   6.909580e-02  
 7.506315e-09   2.927462e-02   3.898809e-01   3.898810e-01   6.683125e-02  
 8.095812e-09   3.157366e-02   3.898716e-01   3.898718e-01   6.459696e-02  
 8.735839e-09   3.406977e-02   3.898608e-01   3.898609e-01   6.237319e-02  
 9.434955e-09   3.679632e-02   3.898478e-01   3.898480e-01   6.014185e-02  
 1.020260e-08   3.979014e-02   3.898322e-01   3.898324e-01   5.788590e-02  
 1.104921e-08   4.309193e-02   3.898130e-01   3.898132e-01   5.558908e-02  
 1.198628e-08   4.674652e-02   3.897891e-01   3.897894e-01   5.323576e-02  
 1.298628e-08   5.064652e-02   3.897601e-01   3.897604e-01   5.090132e-02  
 1.398628e-08   5.454652e-02   3.897270e-01   3.897274e-01   4.871577e-02  
 1.498628e-08   5.844652e-02   3.896892e-01   3.896896e-01   4.665349e-02  
 1.598628e-08   6.234652e-02   3.896459e-01   3.896464e-01   4.469521e-02  
 1.698628e-08   6.624652e-02   3.895963e-01   3.895969e-01   4.282621e-02  
 1.798628e-08   7.014652e-02   3.895395e-01   3.895402e-01   4.103503e-02  
 1.898628e-08   7.404652e-02   3.894744e-01   3.894752e-01   3.931265e-02  
 1.998628e-08   7.794652e-02   3.893996e-01   3.894005e-01   3.765184e-02  
 2.098628e-08   8.184652e-02   3.893136e-01   3.893147e-01   3.604679e-02  
 2.198628e-08   8.574652e-02   3.892146e-01   3.892159e-01   3.449276e-02  
 2.298628e-08   8.964652e-02   3.891006e-01   3.891021e-01   3.298585e-02  
 2.398628e-08   9.354652e-02   3.889691e-01   3.889709e-01   3.152284e-02  
 2.498628e-08   9.744652e-02   3.888172e-01   3.888193e-01   3.010106e-02  
 2.598628e-08   1.013465e-01   3.886415e-01   3.886441e-01   2.871829e-02  
 2.698628e-08   1.052465e-01   3.884381e-01   3.884412e-01   2.737269e-02  
 2.798628e-08   1.091465e-01   3.882022e-01   3.882059e-01   2.606273e-02  
 2.898628e-08   1.130465e-01   3.879281e-01   3.879325e-01   2.478718e-02  
 2.998628e-08   1.169465e-01   3.876092e-01   3.876145e-01   2.354504e-02  
 3.098628e-08   1.208465e-01   3.872373e-01   3.872437e-01   2.233555e-02  
 3.198628e-08   1.247465e-01   3.868028e-01   3.868105e-01   2.115816e-02  
 3.298628e-08   1.286465e-01   3.862938e-01   3.863033e-01   2.001253e-02  
 3.398628e-08   1.325465e-01   3.856961e-01   3.857078e-01   1.889850e-02  
 3.498628e-08   1.364465e-01   3.849918e-01   3.850063e-01   1.781610e-02  
 3.598628e-08   1.403465e-01   3.841588e-01   3.841768e-01   1.676553e-02  
 3.698628e-08   1.442465e-01   3.831686e-01   3.831914e-01   1.574715e-02  
 3.798628e-08   1.481465e-01   3.819843e-01   3.820134e-01   1.476144e-02  
 3.898628e-08   1.520465e-01   3.805553e-01   3.805929e-01   1.380901e-02  
 3.998628e-08   1.559465e-01   3.788087e-01   3.788585e-01   1.289051e-02  
 4.098628e-08   1.598465e-01   3.766316e-01   3.766995e-01   1.200667e-02  
 4.198628e-08   1.637465e-01   3.738273e-01   3.739248e-01   1.115817e-02  
 4.298628e-08   1.676465e-01   3.699977e-01   3.701514e-01   1.034571e-02  
 4.352587e-08   1.697509e-01   3.671982e-01   3.674102e-01   9.922490e-03  
 4.399190e-08   1.715684e-01   3.640775e-01   3.643767e-01   9.565608e-03  
 4.440164e-08   1.731664e-01   3.604693e-01   3.609057e-01   9.258495e-03  
 4.469766e-08   1.743208e-01   3.570816e-01   3.576879e-01   9.040516e-03  
 4.491270e-08   1.751595e-01   3.540366e-01   3.548307e-01   8.884221e-03  
 4.509320e-08   1.758634e-01   3.509953e-01   3.520084e-01   8.754369e-03  
 4.526683e-08   1.765406e-01   3.475754e-01   3.488689e-01   8.630608e-03  
 4.544433e-08   1.772328e-01   3.435265e-01   3.451923e-01   8.505266e-03  
 4.564687e-08   1.780228e-01   3.382095e-01   3.404198e-01   8.363682e-03  
 4.585447e-08   1.788324e-01   3.320528e-01   3.349626e-01   8.220167e-03  
 4.602694e-08   1.795050e-01   3.264866e-01   3.300927e-01   8.102173e-03  
 4.616597e-08   1.800473e-01   3.217662e-01   3.260157e-01   8.007874e-03  
 4.629832e-08   1.805634e-01   3.171224e-01   3.220592e-01   7.918783e-03  
 4.644357e-08   1.811299e-01   3.118954e-01   3.176785e-01   7.821769e-03  
 4.660066e-08   1.817425e-01   3.061253e-01   3.129428e-01   7.717744e-03  
 4.676552e-08   1.823855e-01   2.999724e-01   3.080210e-01   7.609572e-03  
 4.694618e-08   1.830901e-01   2.931467e-01   3.027301e-01   7.492213e-03  
 4.715519e-08   1.839052e-01   2.851724e-01   2.967910e-01   7.357981e-03  
 4.740202e-08   1.848678e-01   2.756801e-01   2.900799e-01   7.201575e-03  
 4.769958e-08   1.860283e-01   2.641649e-01   2.824762e-01   7.016081e-03  
 4.803463e-08   1.873350e-01   2.511369e-01   2.745781e-01   6.811202e-03  
 4.837891e-08   1.886777e-01   2.377066e-01   2.671804e-01   6.605074e-03  
 4.873261e-08   1.900571e-01   2.238806e-01   2.602868e-01   6.397935e-03  
 4.910149e-08   1.914958e-01   2.094443e-01   2.537828e-01   6.186879e-03  
 4.948882e-08   1.930063e-01   1.942804e-01   2.476131e-01   5.970719e-03  
 4.989950e-08   1.946080e-01   1.782084e-01   2.417048e-01   5.747580e-03  
 5.033958e-08   1.963243e-01   1.610095e-01   2.359859e-01   5.515349e-03  
 5.081503e-08   1.981786e-01   1.424769e-01   2.304019e-01   5.272383e-03  
 5.133221e-08   2.001956e-01   1.224099e-01   2.249077e-01   5.017346e-03  
 5.189817e-08   2.024028e-01   1.006380e-01   2.194632e-01   4.749167e-03  
 5.252068e-08   2.048306e-01   7.717015e-02   2.140322e-01   4.467160e-03  
 5.293428e-08   2.064437e-01   6.225655e-02   2.106924e-01   4.287175e-03  
 5.331075e-08   2.079119e-01   4.984213e-02   2.078119e-01   4.128397e-03  
 5.358232e-08   2.089710e-01   4.216125e-02   2.058185e-01   4.016806e-03  
 5.377427e-08   2.097196e-01   3.761089e-02   2.044487e-01   3.939404e-03  
 5.397344e-08   2.104964e-01   3.368902e-02   2.030597e-01   3.860373e-03  
 5.418162e-08   2.113083e-01   3.036684e-02   2.016408e-01   3.779147e-03  
 5.437567e-08   2.120651e-01   2.785115e-02   2.003470e-01   3.704693e-03  
 5.455566e-08   2.127670e-01   2.590757e-02   1.991705e-01   3.636711e-03  
 5.474519e-08   2.135062e-01   2.417306e-02   1.979548e-01   3.566234e-03  
 5.496368e-08   2.143583e-01   2.247781e-02   1.965815e-01   3.486396e-03  
 5.521314e-08   2.153312e-01   2.084236e-02   1.950482e-01   3.397057e-03  
 5.549576e-08   2.164334e-01   1.927618e-02   1.933530e-01   3.298152e-03  
 5.582902e-08   2.177331e-01   1.771597e-02   1.914072e-01   3.184636e-03  
 5.623627e-08   2.193214e-01   1.611382e-02   1.891015e-01   3.050404e-03  
 5.673775e-08   2.212772e-01   1.446876e-02   1.863608e-01   2.891745e-03  
 5.735948e-08   2.237019e-01   1.278245e-02   1.830974e-01   2.704909e-03  
 5.813117e-08   2.267115e-01   1.106927e-02   1.792273e-01   2.487626e-03  
 5.906524e-08   2.303544e-01   9.389919e-03   1.747703e-01   2.245227e-03  
 6.006524e-08   2.342544e-01   7.934623e-03   1.702296e-01   2.009219e-03  
 6.106524e-08   2.381544e-01   6.741872e-03   1.658877e-01   1.795815e-03  
 6.206524e-08   2.420544e-01   5.751566e-03   1.617120e-01   1.603304e-03  
 6.306524e-08   2.459544e-01   4.922237e-03   1.576766e-01   1.430017e-03  
 6.406524e-08   2.498544e-01   4.223449e-03   1.537605e-01   1.274342e-03  
 6.506524e-08   2.537544e-01   3.631921e-03   1.499466e-01   1.134740e-03  
 6.606524e-08   2.576544e-01   3.129352e-03   1.462208e-01   1.009756e-03  
 6.706524e-08   2.615544e-01   2.701070e-03   1.425716e-01   8.980206e-04  
 6.806524e-08   2.654544e-01   2.335152e-03   1.389893e-01   7.982587e-04  
 6.906524e-08   2.693544e-01   2.021810e-03   1.354660e-01   7.092893e-04  
 7.006524e-08   2.732544e-01   1.752945e-03   1.319951e-01   6.300244e-04  
 7.106524e-08   2.771544e-01   1.521820e-03   1.285710e-01   5.594673e-04  
 7.206524e-08   2.810544e-01   1.322800e-03   1.251893e-01   4.967085e-04  
 7.306524e-08   2.849544e-01   1.151154e-03   1.218463e-01   4.409222e-04  
 7.406524e-08   2.888544e-01   1.002899e-03   1.185392e-01   3.913607e-04  
 7.506524e-08   2.927544e-01   8.746686e-04   1.152656e-01   3.473495e-04  
 7.606524e-08   2.966544e-01   7.636112e-04   1.120242e-01   3.082815e-04  
 7.706524e-08   3.005544e-01   6.673066e-04   1.088139e-01   2.736120e-04  
 7.806524e-08   3.044544e-01   5.836952e-04   1.056345e-01   2.428529e-04  
 7.906524e-08   3.083544e-01   5.110211e-04   1.024863e-01   2.155680e-04  
 8.006524e-08   3.122544e-01   4.477846e-04   9.937056e-02   1.913680e-04  
 8.106524e-08   3.161544e-01   3.927026e-04   9.628908e-02   1.699058e-04  
 8.206524e-08   3.200544e-01   3.446755e-04   9.324492e-02   1.508723e-04  
 8.306524e-08   3.239544e-01   3.027593e-04   9.024228e-02   1.339929e-04  
 8.406524e-08   3.278544e-01   2.661428e-04   8.728685e-02   1.190235e-04  
 8.506524e-08   3.317544e-01   2.341274e-04   8.438616e-02   1.057471e-04  
 8.606524e-08   3.356544e-01   2.061113e-04   8.154993e-02   9.397156e-05  
 8.706524e-08   3.395544e-01   1.815748e-04   7.879042e-02   8.352613e-05  
 8.806524e-08   3.434544e-01   1.600688e-04   7.612260e-02   7.425960e-05  
 8.906524e-08   3.473544e-01   1.412048e-04   7.356391e-02   6.603792e-05  
 9.006524e-08   3.512544e-01   1.246462e-04   7.113344e-02   5.874231e-05  
 9.106524e-08   3.551544e-01   1.101011e-04   6.885021e-02   5.226754e-05  
 9.206524e-08   3.590544e-01   9.731620e-05   6.673070e-02   4.652039e-05  
 9.306524e-08   3.629544e-01   8.607111e-05   6.478626e-02   4.141831e-05  
 9.406524e-08   3.668544e-01   7.617430e-05   6.302119e-02   3.688817e-05  
 9.506524e-08   3.707544e-01   6.745893e-05   6.143226e-02   3.286521e-05  
 9.606524e-08   3.746544e-01   5.977958e-05   6.000982e-02   2.929205e-05  
 9.706524e-08   3.785544e-01   5.300938e-05   5.873984e-02   2.611789e-05  
 9.806524e-08   3.824544e-01   4.703753e-05   5.760617e-02   2.329769e-05  
 9.906524e-08   3.863544e-01   4.176723e-05   5.659238e-02   2.079158e-05  
 1.000000e-07   3.900000e-01   3.740009e-05   5.573934e-02   1.870166e-05  
