
time (s)       getData("/nvtc getData("/SNMh getData("/SNMr getData("/SNMw

 0.000000e+00   0.000000e+00   6.698634e-01   6.698637e-01   2.449566e-01  
 1.766740e-11   1.183716e-04   6.698652e-01   6.698654e-01   2.447947e-01  
 3.086391e-11   2.067882e-04   6.698649e-01   6.698651e-01   2.446652e-01  
 4.988378e-11   3.342213e-04   6.698644e-01   6.698647e-01   2.444779e-01  
 8.792352e-11   5.890875e-04   6.698635e-01   6.698637e-01   2.441038e-01  
 1.640029e-10   1.098820e-03   6.698616e-01   6.698618e-01   2.433587e-01  
 3.161619e-10   2.118285e-03   6.698577e-01   6.698579e-01   2.418809e-01  
 6.204798e-10   4.157214e-03   6.698496e-01   6.698498e-01   2.389763e-01  
 1.173731e-09   7.864002e-03   6.698336e-01   6.698339e-01   2.338768e-01  
 1.842169e-09   1.234253e-02   6.698121e-01   6.698124e-01   2.280380e-01  
 2.559934e-09   1.715155e-02   6.697859e-01   6.697863e-01   2.221636e-01  
 3.321740e-09   2.225566e-02   6.697542e-01   6.697546e-01   2.163603e-01  
 4.118165e-09   2.759171e-02   6.697162e-01   6.697166e-01   2.107323e-01  
 4.949878e-09   3.316418e-02   6.696702e-01   6.696708e-01   2.052807e-01  
 5.828778e-09   3.905281e-02   6.696137e-01   6.696144e-01   1.999275e-01  
 6.768919e-09   4.535175e-02   6.695427e-01   6.695435e-01   1.945908e-01  
 7.768919e-09   5.205175e-02   6.694532e-01   6.694541e-01   1.892780e-01  
 8.768919e-09   5.875175e-02   6.693465e-01   6.693477e-01   1.842705e-01  
 9.768919e-09   6.545175e-02   6.692197e-01   6.692210e-01   1.795107e-01  
 1.076891e-08   7.215175e-02   6.690690e-01   6.690707e-01   1.749532e-01  
 1.176891e-08   7.885175e-02   6.688904e-01   6.688924e-01   1.705619e-01  
 1.276891e-08   8.555175e-02   6.686790e-01   6.686814e-01   1.663081e-01  
 1.376891e-08   9.225175e-02   6.684295e-01   6.684324e-01   1.621684e-01  
 1.476891e-08   9.895175e-02   6.681358e-01   6.681392e-01   1.581242e-01  
 1.576891e-08   1.056517e-01   6.677910e-01   6.677951e-01   1.541596e-01  
 1.676891e-08   1.123517e-01   6.673878e-01   6.673927e-01   1.502615e-01  
 1.776891e-08   1.190517e-01   6.669180e-01   6.669238e-01   1.464187e-01  
 1.876891e-08   1.257517e-01   6.663731e-01   6.663800e-01   1.426211e-01  
 1.976891e-08   1.324517e-01   6.657440e-01   6.657523e-01   1.388599e-01  
 2.076891e-08   1.391517e-01   6.650216e-01   6.650313e-01   1.351272e-01  
 2.176891e-08   1.458517e-01   6.641964e-01   6.642079e-01   1.314155e-01  
 2.276891e-08   1.525517e-01   6.632593e-01   6.632728e-01   1.277181e-01  
 2.376891e-08   1.592517e-01   6.622014e-01   6.622173e-01   1.240284e-01  
 2.476891e-08   1.659517e-01   6.610145e-01   6.610331e-01   1.203405e-01  
 2.576891e-08   1.726517e-01   6.596907e-01   6.597124e-01   1.166491e-01  
 2.676891e-08   1.793517e-01   6.582229e-01   6.582481e-01   1.129490e-01  
 2.776891e-08   1.860517e-01   6.566045e-01   6.566336e-01   1.092359e-01  
 2.876891e-08   1.927517e-01   6.548293e-01   6.548627e-01   1.055060e-01  
 2.976891e-08   1.994517e-01   6.528913e-01   6.529294e-01   1.017562e-01  
 3.076891e-08   2.061517e-01   6.507840e-01   6.508273e-01   9.798436e-02  
 3.176891e-08   2.128517e-01   6.485003e-01   6.485493e-01   9.418893e-02  
 3.276891e-08   2.195517e-01   6.460318e-01   6.460873e-01   9.036941e-02  
 3.376891e-08   2.262517e-01   6.433678e-01   6.434305e-01   8.652617e-02  
 3.476891e-08   2.329517e-01   6.404945e-01   6.405656e-01   8.266063e-02  
 3.576891e-08   2.396517e-01   6.373932e-01   6.374744e-01   7.877534e-02  
 3.676891e-08   2.463517e-01   6.340385e-01   6.341317e-01   7.487428e-02  
 3.776891e-08   2.530517e-01   6.303938e-01   6.305020e-01   7.096331e-02  
 3.876891e-08   2.597517e-01   6.264052e-01   6.265329e-01   6.705106e-02  
 3.976891e-08   2.664517e-01   6.219884e-01   6.221425e-01   6.315028e-02  
 4.076891e-08   2.731517e-01   6.170024e-01   6.171949e-01   5.928021e-02  
 4.176891e-08   2.798517e-01   6.111882e-01   6.114424e-01   5.546972e-02  
 4.276163e-08   2.865029e-01   6.040659e-01   6.044353e-01   5.178721e-02  
 4.328364e-08   2.900004e-01   5.993912e-01   5.998740e-01   4.990871e-02  
 4.373120e-08   2.929990e-01   5.945376e-01   5.951824e-01   4.833855e-02  
 4.414211e-08   2.957521e-01   5.890146e-01   5.899160e-01   4.693471e-02  
 4.444805e-08   2.978019e-01   5.839061e-01   5.851291e-01   4.591533e-02  
 4.467507e-08   2.993230e-01   5.793482e-01   5.809355e-01   4.517410e-02  
 4.487002e-08   3.006291e-01   5.747699e-01   5.768012e-01   4.454833e-02  
 4.506092e-08   3.019081e-01   5.695781e-01   5.722090e-01   4.394536e-02  
 4.525662e-08   3.032193e-01   5.634372e-01   5.669085e-01   4.333756e-02  
 4.548986e-08   3.047820e-01   5.549775e-01   5.598337e-01   4.262695e-02  
 4.572964e-08   3.063885e-01   5.450373e-01   5.518514e-01   4.191221e-02  
 4.592152e-08   3.076742e-01   5.362850e-01   5.451208e-01   4.135178e-02  
 4.607204e-08   3.086827e-01   5.290025e-01   5.397375e-01   4.091933e-02  
 4.621573e-08   3.096454e-01   5.217624e-01   5.345842e-01   4.051233e-02  
 4.637727e-08   3.107277e-01   5.133406e-01   5.288403e-01   4.006156e-02  
 4.654970e-08   3.118829e-01   5.040744e-01   5.228288e-01   3.958817e-02  
 4.672901e-08   3.130844e-01   4.941874e-01   5.167612e-01   3.910429e-02  
 4.693199e-08   3.144443e-01   4.827415e-01   5.101617e-01   3.856672e-02  
 4.718259e-08   3.161233e-01   4.683063e-01   5.024383e-01   3.791754e-02  
 4.750579e-08   3.182888e-01   4.492956e-01   4.931688e-01   3.710316e-02  
 4.788544e-08   3.208324e-01   4.265319e-01   4.832013e-01   3.617793e-02  
 4.829681e-08   3.235886e-01   4.014803e-01   4.733731e-01   3.521140e-02  
 4.874571e-08   3.265963e-01   3.738330e-01   4.636023e-01   3.419639e-02  
 4.924184e-08   3.299203e-01   3.430675e-01   4.537368e-01   3.311901e-02  
 4.979239e-08   3.336090e-01   3.088724e-01   4.436976e-01   3.197313e-02  
 5.040745e-08   3.377299e-01   2.708750e-01   4.333697e-01   3.074882e-02  
 5.109875e-08   3.423616e-01   2.288212e-01   4.226357e-01   2.943570e-02  
 5.187818e-08   3.475838e-01   1.828986e-01   4.114007e-01   2.802621e-02  
 5.261252e-08   3.525039e-01   1.421059e-01   4.014842e-01   2.675959e-02  
 5.300866e-08   3.551580e-01   1.218203e-01   3.963601e-01   2.609885e-02  
 5.335263e-08   3.574626e-01   1.058873e-01   3.920237e-01   2.553708e-02  
 5.363808e-08   3.593751e-01   9.442798e-02   3.884988e-01   2.507899e-02  
 5.385836e-08   3.608510e-01   8.695453e-02   3.858214e-01   2.473032e-02  
 5.408011e-08   3.623367e-01   8.068706e-02   3.831621e-01   2.438348e-02  
 5.431696e-08   3.639236e-01   7.524977e-02   3.803598e-01   2.401750e-02  
 5.453451e-08   3.653812e-01   7.118973e-02   3.778187e-01   2.368530e-02  
 5.472724e-08   3.666725e-01   6.817532e-02   3.755929e-01   2.339410e-02  
 5.492447e-08   3.679939e-01   6.552794e-02   3.733390e-01   2.309908e-02  
 5.515082e-08   3.695105e-01   6.290915e-02   3.707808e-01   2.276410e-02  
 5.540771e-08   3.712317e-01   6.034888e-02   3.679129e-01   2.238848e-02  
 5.569371e-08   3.731479e-01   5.788243e-02   3.647627e-01   2.197588e-02  
 5.602632e-08   3.753763e-01   5.538819e-02   3.611531e-01   2.150325e-02  
 5.643034e-08   3.780833e-01   5.275084e-02   3.568424e-01   2.093924e-02  
 5.692532e-08   3.813996e-01   4.993771e-02   3.516655e-01   2.026286e-02  
 5.753546e-08   3.854876e-01   4.691309e-02   3.454315e-01   1.945037e-02  
 5.830416e-08   3.906378e-01   4.358281e-02   3.377915e-01   1.845870e-02  
 5.929294e-08   3.972627e-01   3.983711e-02   3.282846e-01   1.723284e-02  
 6.029294e-08   4.039627e-01   3.648167e-02   3.190031e-01   1.604703e-02  
 6.129294e-08   4.106627e-01   3.344672e-02   3.100276e-01   1.491282e-02  
 6.229294e-08   4.173627e-01   3.066453e-02   3.013344e-01   1.382803e-02  
 6.329294e-08   4.240627e-01   2.809198e-02   2.929045e-01   1.279096e-02  
 6.429294e-08   4.307627e-01   2.569994e-02   2.847228e-01   1.180025e-02  
 6.529294e-08   4.374627e-01   2.346789e-02   2.767768e-01   1.085492e-02  
 6.629294e-08   4.441627e-01   2.138097e-02   2.690571e-01   9.954267e-03  
 6.729294e-08   4.508627e-01   1.942818e-02   2.615560e-01   9.097846e-03  
 6.829294e-08   4.575627e-01   1.760122e-02   2.542677e-01   8.285440e-03  
 6.929294e-08   4.642627e-01   1.589381e-02   2.471880e-01   7.516992e-03  
 7.029294e-08   4.709627e-01   1.430105e-02   2.403137e-01   6.792561e-03  
 7.129294e-08   4.776627e-01   1.281906e-02   2.336430e-01   6.112255e-03  
 7.229294e-08   4.843627e-01   1.144462e-02   2.271750e-01   5.476165e-03  
 7.329294e-08   4.910627e-01   1.017486e-02   2.209098e-01   4.884292e-03  
 7.429294e-08   4.977627e-01   9.007049e-03   2.148487e-01   4.336474e-03  
 7.529294e-08   5.044627e-01   7.938330e-03   2.089945e-01   3.832319e-03  
 7.629294e-08   5.111627e-01   6.965584e-03   2.033518e-01   3.371146e-03  
 7.729294e-08   5.178627e-01   6.085283e-03   1.979279e-01   2.951948e-03  
 7.829294e-08   5.245627e-01   5.293414e-03   1.927333e-01   2.573369e-03  
 7.929294e-08   5.312627e-01   4.585457e-03   1.877834e-01   2.233707e-03  
 8.029294e-08   5.379627e-01   3.956414e-03   1.830988e-01   1.930944e-03  
 8.129294e-08   5.446627e-01   3.400880e-03   1.787052e-01   1.662791e-03  
 8.229294e-08   5.513627e-01   2.913154e-03   1.746322e-01   1.426749e-03  
 8.329294e-08   5.580627e-01   2.487366e-03   1.709090e-01   1.220186e-03  
 8.429294e-08   5.647627e-01   2.117617e-03   1.675578e-01   1.040410e-03  
 8.529294e-08   5.714627e-01   1.798107e-03   1.645870e-01   8.847395e-04  
 8.629294e-08   5.781627e-01   1.523248e-03   1.619872e-01   7.505636e-04  
 8.729294e-08   5.848627e-01   1.287762e-03   1.597326e-01   6.353976e-04  
 8.829294e-08   5.915627e-01   1.086741e-03   1.577863e-01   5.369172e-04  
 8.929294e-08   5.982627e-01   9.156941e-04   1.561071e-01   4.529828e-04  
 9.029294e-08   6.049627e-01   7.705616e-04   1.546543e-01   3.816536e-04  
 9.129294e-08   6.116627e-01   6.477205e-04   1.533914e-01   3.211896e-04  
 9.229294e-08   6.183627e-01   5.439679e-04   1.522870e-01   2.700480e-04  
 9.329294e-08   6.250627e-01   4.564974e-04   1.513149e-01   2.268729e-04  
 9.429294e-08   6.317627e-01   3.828686e-04   1.504537e-01   1.904820e-04  
 9.529294e-08   6.384627e-01   3.209730e-04   1.496859e-01   1.598515e-04  
 9.629294e-08   6.451627e-01   2.689989e-04   1.489972e-01   1.340997e-04  
 9.729294e-08   6.518627e-01   2.253968e-04   1.483760e-01   1.124707e-04  
 9.829294e-08   6.585627e-01   1.888468e-04   1.478128e-01   9.431971e-05  
 9.929294e-08   6.652627e-01   1.582284e-04   1.472999e-01   7.909798e-05  
 1.000000e-07   6.700000e-01   1.396363e-04   1.469639e-01   6.984684e-05  
