
time (s)       getData("/nvtc getData("/SNMh getData("/SNMr getData("/SNMw

 0.000000e+00   0.000000e+00   1.189641e+00   1.189642e+00   5.009697e-01  
 1.357593e-11   1.615535e-04   1.189644e+00   1.189644e+00   5.007454e-01  
 2.332499e-11   2.775673e-04   1.189643e+00   1.189643e+00   5.006894e-01  
 3.846230e-11   4.577013e-04   1.189641e+00   1.189642e+00   5.006068e-01  
 6.359432e-11   7.567725e-04   1.189638e+00   1.189639e+00   5.004696e-01  
 1.138583e-10   1.354914e-03   1.189633e+00   1.189633e+00   5.001949e-01  
 1.813529e-10   2.158100e-03   1.189625e+00   1.189626e+00   4.998252e-01  
 2.530873e-10   3.011739e-03   1.189617e+00   1.189617e+00   4.994310e-01  
 3.287038e-10   3.911575e-03   1.189608e+00   1.189608e+00   4.990143e-01  
 4.065884e-10   4.838403e-03   1.189598e+00   1.189599e+00   4.985837e-01  
 4.870082e-10   5.795397e-03   1.189588e+00   1.189589e+00   4.981377e-01  
 5.698683e-10   6.781433e-03   1.189577e+00   1.189578e+00   4.976766e-01  
 6.553674e-10   7.798872e-03   1.189566e+00   1.189567e+00   4.971994e-01  
 7.436391e-10   8.849306e-03   1.189554e+00   1.189555e+00   4.967050e-01  
 8.348787e-10   9.935056e-03   1.189542e+00   1.189543e+00   4.961922e-01  
 9.292849e-10   1.105849e-02   1.189528e+00   1.189529e+00   4.956599e-01  
 1.027086e-09   1.222232e-02   1.189514e+00   1.189515e+00   4.951065e-01  
 1.128532e-09   1.342953e-02   1.189499e+00   1.189500e+00   4.945305e-01  
 1.221230e-09   1.453264e-02   1.189484e+00   1.189485e+00   4.940023e-01  
 1.331964e-09   1.585037e-02   1.189467e+00   1.189468e+00   4.933693e-01  
 1.432792e-09   1.705022e-02   1.189450e+00   1.189451e+00   4.927908e-01  
 1.531637e-09   1.822648e-02   1.189433e+00   1.189434e+00   4.922219e-01  
 1.654865e-09   1.969290e-02   1.189412e+00   1.189413e+00   4.915101e-01  
 1.766627e-09   2.102287e-02   1.189391e+00   1.189392e+00   4.908622e-01  
 1.876973e-09   2.233599e-02   1.189371e+00   1.189372e+00   4.902204e-01  
 1.993486e-09   2.372248e-02   1.189348e+00   1.189349e+00   4.895404e-01  
 2.113844e-09   2.515475e-02   1.189324e+00   1.189325e+00   4.888356e-01  
 2.238295e-09   2.663571e-02   1.189298e+00   1.189299e+00   4.881043e-01  
 2.368247e-09   2.818214e-02   1.189270e+00   1.189271e+00   4.873380e-01  
 2.504140e-09   2.979927e-02   1.189239e+00   1.189240e+00   4.865339e-01  
 2.646427e-09   3.149248e-02   1.189206e+00   1.189207e+00   4.856888e-01  
 2.795825e-09   3.327032e-02   1.189169e+00   1.189171e+00   4.847983e-01  
 2.953079e-09   3.514164e-02   1.189129e+00   1.189131e+00   4.838574e-01  
 3.119005e-09   3.711615e-02   1.189085e+00   1.189086e+00   4.828609e-01  
 3.294571e-09   3.920539e-02   1.189035e+00   1.189037e+00   4.818023e-01  
 3.480908e-09   4.142281e-02   1.188980e+00   1.188982e+00   4.806742e-01  
 3.679345e-09   4.378421e-02   1.188918e+00   1.188920e+00   4.794680e-01  
 3.891462e-09   4.630839e-02   1.188847e+00   1.188849e+00   4.781731e-01  
 4.119156e-09   4.901796e-02   1.188767e+00   1.188769e+00   4.767771e-01  
 4.364733e-09   5.194032e-02   1.188674e+00   1.188676e+00   4.752647e-01  
 4.631027e-09   5.510922e-02   1.188566e+00   1.188568e+00   4.736169e-01  
 4.921569e-09   5.856667e-02   1.188438e+00   1.188441e+00   4.718102e-01  
 5.240829e-09   6.236587e-02   1.188285e+00   1.188288e+00   4.698147e-01  
 5.594566e-09   6.657534e-02   1.188100e+00   1.188103e+00   4.675916e-01  
 5.990358e-09   7.128526e-02   1.187870e+00   1.187874e+00   4.650894e-01  
 6.438411e-09   7.661710e-02   1.187580e+00   1.187584e+00   4.622386e-01  
 6.952883e-09   8.273930e-02   1.187201e+00   1.187206e+00   4.589415e-01  
 7.554081e-09   8.989357e-02   1.186692e+00   1.186697e+00   4.550568e-01  
 8.272394e-09   9.844149e-02   1.185976e+00   1.185983e+00   4.503692e-01  
 9.155724e-09   1.089531e-01   1.184914e+00   1.184923e+00   4.445322e-01  
 1.015572e-08   1.208531e-01   1.183438e+00   1.183450e+00   4.378184e-01  
 1.115572e-08   1.327531e-01   1.181638e+00   1.181653e+00   4.309772e-01  
 1.215572e-08   1.446531e-01   1.179489e+00   1.179508e+00   4.239901e-01  
 1.315572e-08   1.565531e-01   1.176977e+00   1.177000e+00   4.168369e-01  
 1.415572e-08   1.684531e-01   1.174102e+00   1.174131e+00   4.094984e-01  
 1.515572e-08   1.803531e-01   1.170876e+00   1.170911e+00   4.019584e-01  
 1.615572e-08   1.922531e-01   1.167320e+00   1.167362e+00   3.942059e-01  
 1.715572e-08   2.041531e-01   1.163460e+00   1.163509e+00   3.862356e-01  
 1.815572e-08   2.160531e-01   1.159320e+00   1.159377e+00   3.780482e-01  
 1.915572e-08   2.279531e-01   1.154924e+00   1.154991e+00   3.696489e-01  
 2.015572e-08   2.398531e-01   1.150290e+00   1.150367e+00   3.610455e-01  
 2.115572e-08   2.517531e-01   1.145431e+00   1.145522e+00   3.522478e-01  
 2.215572e-08   2.636531e-01   1.140355e+00   1.140461e+00   3.432654e-01  
 2.315572e-08   2.755531e-01   1.135066e+00   1.135192e+00   3.341077e-01  
 2.415572e-08   2.874531e-01   1.129565e+00   1.129713e+00   3.247837e-01  
 2.515572e-08   2.993531e-01   1.123850e+00   1.124026e+00   3.153019e-01  
 2.615572e-08   3.112531e-01   1.117917e+00   1.118128e+00   3.056708e-01  
 2.715572e-08   3.231531e-01   1.111764e+00   1.112018e+00   2.958993e-01  
 2.815572e-08   3.350531e-01   1.105385e+00   1.105693e+00   2.859967e-01  
 2.915572e-08   3.469531e-01   1.098776e+00   1.099151e+00   2.759730e-01  
 3.015572e-08   3.588531e-01   1.091932e+00   1.092392e+00   2.658392e-01  
 3.115572e-08   3.707531e-01   1.084846e+00   1.085415e+00   2.556076e-01  
 3.215572e-08   3.826531e-01   1.077512e+00   1.078217e+00   2.452915e-01  
 3.315572e-08   3.945531e-01   1.069920e+00   1.070799e+00   2.349056e-01  
 3.415572e-08   4.064531e-01   1.062054e+00   1.063157e+00   2.244663e-01  
 3.515572e-08   4.183531e-01   1.053897e+00   1.055288e+00   2.139925e-01  
 3.615572e-08   4.302531e-01   1.045419e+00   1.047182e+00   2.035058e-01  
 3.715572e-08   4.421531e-01   1.036578e+00   1.038827e+00   1.930329e-01  
 3.815572e-08   4.540531e-01   1.027311e+00   1.030196e+00   1.826085e-01  
 3.915572e-08   4.659531e-01   1.017513e+00   1.021247e+00   1.722827e-01  
 4.015572e-08   4.778531e-01   1.007010e+00   1.011904e+00   1.621349e-01  
 4.115572e-08   4.897531e-01   9.954829e-01   1.002032e+00   1.523030e-01  
 4.215572e-08   5.016531e-01   9.822799e-01   9.913872e-01   1.430240e-01  
 4.314887e-08   5.134715e-01   9.659581e-01   9.795919e-01   1.346848e-01  
 4.403983e-08   5.240740e-01   9.452401e-01   9.672984e-01   1.281539e-01  
 4.471671e-08   5.321289e-01   9.209667e-01   9.562900e-01   1.237900e-01  
 4.520039e-08   5.378846e-01   8.962925e-01   9.472904e-01   1.209447e-01  
 4.557811e-08   5.423795e-01   8.722741e-01   9.395691e-01   1.188565e-01  
 4.591439e-08   5.463813e-01   8.478592e-01   9.322331e-01   1.170824e-01  
 4.624691e-08   5.503383e-01   8.213541e-01   9.246318e-01   1.153969e-01  
 4.658975e-08   5.544181e-01   7.920025e-01   9.165339e-01   1.137218e-01  
 4.695405e-08   5.587532e-01   7.589791e-01   9.077519e-01   1.120027e-01  
 4.734957e-08   5.634599e-01   7.214224e-01   8.981259e-01   1.101980e-01  
 4.778646e-08   5.686589e-01   6.783904e-01   8.874926e-01   1.082691e-01  
 4.828177e-08   5.745530e-01   6.283117e-01   8.755356e-01   1.061523e-01  
 4.887358e-08   5.815956e-01   5.676954e-01   8.614712e-01   1.037059e-01  
 4.962758e-08   5.905682e-01   4.911135e-01   8.439720e-01   1.006975e-01  
 5.039894e-08   5.997474e-01   4.159406e-01   8.265744e-01   9.772372e-02  
 5.108771e-08   6.079437e-01   3.536447e-01   8.114562e-01   9.514245e-02  
 5.165134e-08   6.146510e-01   3.074460e-01   7.993596e-01   9.307515e-02  
 5.213149e-08   6.203648e-01   2.725022e-01   7.892384e-01   9.134268e-02  
 5.255228e-08   6.253722e-01   2.461464e-01   7.805001e-01   8.984430e-02  
 5.292069e-08   6.297563e-01   2.270950e-01   7.729457e-01   8.854671e-02  
 5.324854e-08   6.336576e-01   2.135612e-01   7.662957e-01   8.740264e-02  
 5.355539e-08   6.373091e-01   2.035434e-01   7.601311e-01   8.634047e-02  
 5.386381e-08   6.409793e-01   1.955177e-01   7.539913e-01   8.528100e-02  
 5.419441e-08   6.449135e-01   1.885702e-01   7.474705e-01   8.415403e-02  
 5.456620e-08   6.493378e-01   1.821640e-01   7.402098e-01   8.289702e-02  
 5.500017e-08   6.545020e-01   1.759340e-01   7.318284e-01   8.144313e-02  
 5.552084e-08   6.606981e-01   1.696020e-01   7.219004e-01   7.971700e-02  
 5.615829e-08   6.682837e-01   1.629205e-01   7.099277e-01   7.762967e-02  
 5.695052e-08   6.777112e-01   1.556479e-01   6.953137e-01   7.507348e-02  
 5.794277e-08   6.895189e-01   1.475124e-01   6.774039e-01   7.192852e-02  
 5.894277e-08   7.014189e-01   1.400206e-01   6.597759e-01   6.882005e-02  
 5.994277e-08   7.133189e-01   1.330217e-01   6.425538e-01   6.577085e-02  
 6.094277e-08   7.252189e-01   1.263832e-01   6.257254e-01   6.277959e-02  
 6.194277e-08   7.371189e-01   1.200308e-01   6.092828e-01   5.984548e-02  
 6.294277e-08   7.490189e-01   1.139168e-01   5.932222e-01   5.696817e-02  
 6.394277e-08   7.609189e-01   1.080096e-01   5.775430e-01   5.414766e-02  
 6.494277e-08   7.728189e-01   1.022877e-01   5.622474e-01   5.138418e-02  
 6.594277e-08   7.847189e-01   9.673594e-02   5.473404e-01   4.867818e-02  
 6.694277e-08   7.966189e-01   9.134359e-02   5.328293e-01   4.603024e-02  
 6.794277e-08   8.085189e-01   8.610301e-02   5.187239e-01   4.344102e-02  
 6.894277e-08   8.204189e-01   8.100857e-02   5.050364e-01   4.091120e-02  
 6.994277e-08   8.323189e-01   7.605611e-02   4.917817e-01   3.844146e-02  
 7.094277e-08   8.442189e-01   7.124244e-02   4.789782e-01   3.603241e-02  
 7.194277e-08   8.561189e-01   6.656503e-02   4.666485e-01   3.368456e-02  
 7.294277e-08   8.680189e-01   6.202177e-02   4.548206e-01   3.139833e-02  
 7.394277e-08   8.799189e-01   5.761083e-02   4.435299e-01   2.917402e-02  
 7.494277e-08   8.918189e-01   5.333062e-02   4.328217e-01   2.701186e-02  
 7.594277e-08   9.037189e-01   4.917983e-02   4.227527e-01   2.491204e-02  
 7.694277e-08   9.156189e-01   4.515757e-02   4.133907e-01   2.287484e-02  
 7.794277e-08   9.275189e-01   4.126363e-02   4.048091e-01   2.090078e-02  
 7.894277e-08   9.394189e-01   3.749887e-02   3.970732e-01   1.899084e-02  
 7.994277e-08   9.513189e-01   3.386567e-02   3.902196e-01   1.714668e-02  
 8.094277e-08   9.632189e-01   3.036845e-02   3.842399e-01   1.537097e-02  
 8.194277e-08   9.751189e-01   2.701428e-02   3.790791e-01   1.366765e-02  
 8.294277e-08   9.870189e-01   2.381320e-02   3.746509e-01   1.204213e-02  
 8.394277e-08   9.989189e-01   2.077844e-02   3.708596e-01   1.050138e-02  
 8.494277e-08   1.010818e+00   1.792608e-02   3.676151e-01   9.053809e-03  
 8.594277e-08   1.022718e+00   1.527422e-02   3.648405e-01   7.708758e-03  
 8.694277e-08   1.034618e+00   1.284142e-02   3.624727e-01   6.475732e-03  
 8.794277e-08   1.046518e+00   1.064447e-02   3.604592e-01   5.363257e-03  
 8.894277e-08   1.058418e+00   8.695837e-03   3.587549e-01   4.377572e-03  
 8.994277e-08   1.070318e+00   7.001248e-03   3.573194e-01   3.521398e-03  
 9.094277e-08   1.082218e+00   5.557978e-03   3.561153e-01   2.793106e-03  
 9.194277e-08   1.094118e+00   4.354417e-03   3.551082e-01   2.186536e-03  
 9.294277e-08   1.106018e+00   3.371083e-03   3.542663e-01   1.691556e-03  
 9.394277e-08   1.117918e+00   2.582831e-03   3.535615e-01   1.295221e-03  
 9.494277e-08   1.129818e+00   1.961622e-03   3.529694e-01   9.831909e-04  
 9.578533e-08   1.139845e+00   1.547045e-03   3.525428e-01   7.751200e-04  
 9.642218e-08   1.147423e+00   1.289260e-03   3.522575e-01   6.458149e-04  
 9.691047e-08   1.153234e+00   1.119535e-03   3.520577e-01   5.607135e-04  
 9.729725e-08   1.157837e+00   1.000356e-03   3.519099e-01   5.009724e-04  
 9.761250e-08   1.161588e+00   9.122663e-04   3.517959e-01   4.568241e-04  
 9.787807e-08   1.164749e+00   8.438759e-04   3.517040e-01   4.225542e-04  
 9.810842e-08   1.167490e+00   7.885716e-04   3.516272e-01   3.948450e-04  
 9.831272e-08   1.169921e+00   7.424638e-04   3.515613e-01   3.717461e-04  
 9.849710e-08   1.172115e+00   7.031004e-04   3.515035e-01   3.520277e-04  
 9.866579e-08   1.174122e+00   6.688645e-04   3.514520e-01   3.348792e-04  
 9.882175e-08   1.175978e+00   6.386569e-04   3.514055e-01   3.197495e-04  
 9.896711e-08   1.177708e+00   6.116996e-04   3.513631e-01   3.062486e-04  
 9.910348e-08   1.179331e+00   5.874213e-04   3.513241e-01   2.940900e-04  
 9.923208e-08   1.180861e+00   5.653907e-04   3.512880e-01   2.830577e-04  
 9.935386e-08   1.182310e+00   5.452735e-04   3.512545e-01   2.729841e-04  
 9.946960e-08   1.183688e+00   5.268048e-04   3.512231e-01   2.637364e-04  
 9.957993e-08   1.185001e+00   5.097707e-04   3.511937e-01   2.552074e-04  
 9.968538e-08   1.186256e+00   4.939955e-04   3.511661e-01   2.473090e-04  
 9.978640e-08   1.187458e+00   4.793334e-04   3.511399e-01   2.399682e-04  
 9.988338e-08   1.188612e+00   4.656614e-04   3.511152e-01   2.331233e-04  
 1.000000e-07   1.190000e+00   4.497278e-04   3.510859e-01   2.251465e-04  
