
time (s)       getData("/nvtc getData("/SNMh getData("/SNMr getData("/SNMw

 0.000000e+00   0.000000e+00   7.197960e-01   7.197965e-01   2.725367e-01  
 1.708280e-11   1.229961e-04   7.197978e-01   7.197982e-01   2.723955e-01  
 2.978409e-11   2.144454e-04   7.197973e-01   7.197978e-01   2.722834e-01  
 4.825953e-11   3.474686e-04   7.197966e-01   7.197971e-01   2.721198e-01  
 8.521042e-11   6.135150e-04   7.197952e-01   7.197957e-01   2.717930e-01  
 1.591121e-10   1.145607e-03   7.197923e-01   7.197928e-01   2.711416e-01  
 3.069157e-10   2.209793e-03   7.197865e-01   7.197870e-01   2.698474e-01  
 6.025227e-10   4.338164e-03   7.197742e-01   7.197747e-01   2.672945e-01  
 1.193736e-09   8.594905e-03   7.197477e-01   7.197482e-01   2.623352e-01  
 1.975690e-09   1.422497e-02   7.197077e-01   7.197084e-01   2.560849e-01  
 2.837591e-09   2.043066e-02   7.196565e-01   7.196573e-01   2.496013e-01  
 3.763186e-09   2.709494e-02   7.195917e-01   7.195927e-01   2.430879e-01  
 4.746107e-09   3.417197e-02   7.195098e-01   7.195110e-01   2.366315e-01  
 5.746107e-09   4.137197e-02   7.194099e-01   7.194113e-01   2.304857e-01  
 6.746107e-09   4.857197e-02   7.192903e-01   7.192920e-01   2.247009e-01  
 7.746107e-09   5.577197e-02   7.191472e-01   7.191492e-01   2.192172e-01  
 8.746107e-09   6.297197e-02   7.189763e-01   7.189788e-01   2.139827e-01  
 9.746107e-09   7.017197e-02   7.187726e-01   7.187756e-01   2.089542e-01  
 1.074610e-08   7.737197e-02   7.185305e-01   7.185340e-01   2.040959e-01  
 1.174610e-08   8.457197e-02   7.182433e-01   7.182476e-01   1.993782e-01  
 1.274610e-08   9.177197e-02   7.179040e-01   7.179091e-01   1.947764e-01  
 1.374610e-08   9.897197e-02   7.175044e-01   7.175106e-01   1.902701e-01  
 1.474610e-08   1.061719e-01   7.170359e-01   7.170432e-01   1.858418e-01  
 1.574610e-08   1.133719e-01   7.164890e-01   7.164977e-01   1.814765e-01  
 1.674610e-08   1.205719e-01   7.158539e-01   7.158644e-01   1.771611e-01  
 1.774610e-08   1.277719e-01   7.151207e-01   7.151331e-01   1.728837e-01  
 1.874610e-08   1.349719e-01   7.142792e-01   7.142940e-01   1.686339e-01  
 1.974610e-08   1.421719e-01   7.133197e-01   7.133373e-01   1.644020e-01  
 2.074610e-08   1.493719e-01   7.122331e-01   7.122538e-01   1.601789e-01  
 2.174610e-08   1.565719e-01   7.110109e-01   7.110352e-01   1.559565e-01  
 2.274610e-08   1.637719e-01   7.096459e-01   7.096742e-01   1.517273e-01  
 2.374610e-08   1.709719e-01   7.081318e-01   7.081646e-01   1.474845e-01  
 2.474610e-08   1.781719e-01   7.064634e-01   7.065013e-01   1.432219e-01  
 2.574610e-08   1.853719e-01   7.046366e-01   7.046801e-01   1.389344e-01  
 2.674610e-08   1.925719e-01   7.026480e-01   7.026975e-01   1.346178e-01  
 2.774610e-08   1.997719e-01   7.004947e-01   7.005509e-01   1.302686e-01  
 2.874610e-08   2.069719e-01   6.981738e-01   6.982372e-01   1.258846e-01  
 2.974610e-08   2.141719e-01   6.956822e-01   6.957534e-01   1.214645e-01  
 3.074610e-08   2.213719e-01   6.930156e-01   6.930956e-01   1.170078e-01  
 3.174610e-08   2.285719e-01   6.901688e-01   6.902586e-01   1.125152e-01  
 3.274610e-08   2.357719e-01   6.871342e-01   6.872352e-01   1.079882e-01  
 3.374610e-08   2.429719e-01   6.839016e-01   6.840156e-01   1.034291e-01  
 3.474610e-08   2.501719e-01   6.804571e-01   6.805865e-01   9.884123e-02  
 3.574610e-08   2.573719e-01   6.767815e-01   6.769295e-01   9.422905e-02  
 3.674610e-08   2.645719e-01   6.728482e-01   6.730188e-01   8.959849e-02  
 3.774610e-08   2.717719e-01   6.686190e-01   6.688182e-01   8.495755e-02  
 3.874610e-08   2.789719e-01   6.640380e-01   6.642743e-01   8.031746e-02  
 3.974610e-08   2.861719e-01   6.590182e-01   6.593048e-01   7.569460e-02  
 4.074610e-08   2.933719e-01   6.534155e-01   6.537746e-01   7.111368e-02  
 4.174610e-08   3.005719e-01   6.469694e-01   6.474432e-01   6.661244e-02  
 4.274610e-08   3.077719e-01   6.391492e-01   6.398330e-01   6.224662e-02  
 4.330230e-08   3.117765e-01   6.337863e-01   6.346841e-01   5.990381e-02  
 4.378137e-08   3.152259e-01   6.282025e-01   6.294092e-01   5.794846e-02  
 4.421275e-08   3.183318e-01   6.219812e-01   6.236664e-01   5.624491e-02  
 4.453666e-08   3.206640e-01   6.161882e-01   6.184739e-01   5.500473e-02  
 4.478112e-08   3.224241e-01   6.109260e-01   6.139009e-01   5.409211e-02  
 4.499421e-08   3.239583e-01   6.055433e-01   6.093689e-01   5.331348e-02  
 4.520693e-08   3.254899e-01   5.992913e-01   6.042876e-01   5.255215e-02  
 4.543511e-08   3.271327e-01   5.914954e-01   5.982120e-01   5.175331e-02  
 4.568522e-08   3.289336e-01   5.816118e-01   5.908920e-01   5.089892e-02  
 4.593810e-08   3.307543e-01   5.702864e-01   5.829852e-01   5.005748e-02  
 4.613166e-08   3.321480e-01   5.608345e-01   5.767525e-01   4.942845e-02  
 4.629130e-08   3.332974e-01   5.526095e-01   5.715863e-01   4.891928e-02  
 4.645845e-08   3.345008e-01   5.436464e-01   5.662165e-01   4.839531e-02  
 4.665302e-08   3.359018e-01   5.328316e-01   5.600790e-01   4.779692e-02  
 4.685911e-08   3.373856e-01   5.210055e-01   5.537656e-01   4.717629e-02  
 4.708165e-08   3.389879e-01   5.078828e-01   5.472037e-01   4.652087e-02  
 4.735169e-08   3.409321e-01   4.915593e-01   5.396199e-01   4.574533e-02  
 4.770591e-08   3.434825e-01   4.696205e-01   5.302896e-01   4.475918e-02  
 4.814743e-08   3.466615e-01   4.416481e-01   5.195543e-01   4.357620e-02  
 4.863556e-08   3.501760e-01   4.101631e-01   5.086702e-01   4.232292e-02  
 4.917339e-08   3.540484e-01   3.750749e-01   4.976529e-01   4.100187e-02  
 4.977517e-08   3.583812e-01   3.356622e-01   4.862905e-01   3.958997e-02  
 5.044894e-08   3.632323e-01   2.917946e-01   4.745206e-01   3.808239e-02  
 5.120550e-08   3.686796e-01   2.435142e-01   4.622439e-01   3.647024e-02  
 5.201845e-08   3.745329e-01   1.937765e-01   4.499253e-01   3.482090e-02  
 5.272091e-08   3.795905e-01   1.538427e-01   4.398704e-01   3.345676e-02  
 5.309051e-08   3.822517e-01   1.347246e-01   4.347673e-01   3.275962e-02  
 5.340840e-08   3.845404e-01   1.199420e-01   4.304711e-01   3.217068e-02  
 5.368972e-08   3.865659e-01   1.086132e-01   4.267362e-01   3.165735e-02  
 5.392476e-08   3.882583e-01   1.006387e-01   4.236612e-01   3.123393e-02  
 5.417398e-08   3.900526e-01   9.367198e-02   4.204440e-01   3.079025e-02  
 5.442592e-08   3.918666e-01   8.799281e-02   4.172348e-01   3.034709e-02  
 5.464721e-08   3.934599e-01   8.390996e-02   4.144502e-01   2.996214e-02  
 5.484836e-08   3.949082e-01   8.076793e-02   4.119459e-01   2.961567e-02  
 5.506346e-08   3.964569e-01   7.787050e-02   4.092953e-01   2.924871e-02  
 5.531136e-08   3.982418e-01   7.498590e-02   4.062740e-01   2.883018e-02  
 5.558891e-08   4.002401e-01   7.219209e-02   4.029326e-01   2.836710e-02  
 5.589985e-08   4.024789e-01   6.946782e-02   3.992387e-01   2.785498e-02  
 5.626686e-08   4.051214e-01   6.665658e-02   3.949430e-01   2.725935e-02  
 5.671460e-08   4.083451e-01   6.365497e-02   3.897920e-01   2.654524e-02  
 5.726277e-08   4.122919e-01   6.043385e-02   3.836117e-01   2.568902e-02  
 5.794144e-08   4.171784e-01   5.692790e-02   3.761399e-01   2.465535e-02  
 5.880189e-08   4.233736e-01   5.301005e-02   3.669312e-01   2.338478e-02  
 5.980189e-08   4.305736e-01   4.896868e-02   3.565694e-01   2.196133e-02  
 6.080189e-08   4.377736e-01   4.532126e-02   3.465429e-01   2.059207e-02  
 6.180189e-08   4.449736e-01   4.197181e-02   3.368254e-01   1.927437e-02  
 6.280189e-08   4.521736e-01   3.886172e-02   3.273960e-01   1.800612e-02  
 6.380189e-08   4.593736e-01   3.595251e-02   3.182375e-01   1.678558e-02  
 6.480189e-08   4.665736e-01   3.321760e-02   3.093365e-01   1.561140e-02  
 6.580189e-08   4.737736e-01   3.063801e-02   3.006824e-01   1.448253e-02  
 6.680189e-08   4.809736e-01   2.819985e-02   2.922669e-01   1.339823e-02  
 6.780189e-08   4.881736e-01   2.589281e-02   2.840843e-01   1.235806e-02  
 6.880189e-08   4.953736e-01   2.370920e-02   2.761306e-01   1.136184e-02  
 6.980189e-08   5.025736e-01   2.164334e-02   2.684040e-01   1.040962e-02  
 7.080189e-08   5.097736e-01   1.969110e-02   2.609042e-01   9.501675e-03  
 7.180189e-08   5.169736e-01   1.784953e-02   2.536328e-01   8.638457e-03  
 7.280189e-08   5.241736e-01   1.611660e-02   2.465933e-01   7.820559e-03  
 7.380189e-08   5.313736e-01   1.449097e-02   2.397913e-01   7.048644e-03  
 7.480189e-08   5.385736e-01   1.297168e-02   2.332344e-01   6.323384e-03  
 7.580189e-08   5.457736e-01   1.155798e-02   2.269336e-01   5.645372e-03  
 7.680189e-08   5.529736e-01   1.024907e-02   2.209031e-01   5.015038e-03  
 7.780189e-08   5.601736e-01   9.043875e-03   2.151621e-01   4.432557e-03  
 7.880189e-08   5.673736e-01   7.940840e-03   2.097347e-01   3.897770e-03  
 7.980189e-08   5.745736e-01   6.937792e-03   2.046508e-01   3.410113e-03  
 8.080189e-08   5.817736e-01   6.031808e-03   1.999443e-01   2.968575e-03  
 8.180189e-08   5.889736e-01   5.219159e-03   1.956486e-01   2.571674e-03  
 8.280189e-08   5.961736e-01   4.495330e-03   1.917898e-01   2.217482e-03  
 8.380189e-08   6.033736e-01   3.855088e-03   1.883785e-01   1.903660e-03  
 8.480189e-08   6.105736e-01   3.292617e-03   1.854044e-01   1.627537e-03  
 8.580189e-08   6.177736e-01   2.801678e-03   1.828372e-01   1.386195e-03  
 8.680189e-08   6.249736e-01   2.375803e-03   1.806331e-01   1.176570e-03  
 8.780189e-08   6.321736e-01   2.008475e-03   1.787426e-01   9.955474e-04  
 8.880189e-08   6.393736e-01   1.693301e-03   1.771173e-01   8.400523e-04  
 8.980189e-08   6.465736e-01   1.424154e-03   1.757135e-01   7.071241e-04  
 9.080189e-08   6.537736e-01   1.195284e-03   1.744937e-01   5.939732e-04  
 9.180189e-08   6.609736e-01   1.001392e-03   1.734270e-01   4.980211e-04  
 9.280189e-08   6.681736e-01   8.376696e-04   1.724878e-01   4.169227e-04  
 9.380189e-08   6.753736e-01   6.998155e-04   1.716557e-01   3.485754e-04  
 9.480189e-08   6.825736e-01   5.840268e-04   1.709139e-01   2.911173e-04  
 9.580189e-08   6.897736e-01   4.869755e-04   1.702488e-01   2.429159e-04  
 9.680189e-08   6.969736e-01   4.057745e-04   1.696492e-01   2.025531e-04  
 9.780189e-08   7.041736e-01   3.379376e-04   1.691060e-01   1.688061e-04  
 9.880189e-08   7.113736e-01   2.813374e-04   1.686118e-01   1.406270e-04  
 9.940094e-08   7.156868e-01   2.520495e-04   1.683365e-01   1.260368e-04  
 1.000000e-07   7.200000e-01   2.257982e-04   1.680753e-01   1.129535e-04  
