
time (s)       getData("/nvtc getData("/SNMh getData("/SNMr getData("/SNMw

 0.000000e+00   0.000000e+00   5.298522e-01   5.298526e-01   1.934370e-01  
 1.973350e-11   1.045875e-04   5.298537e-01   5.298540e-01   1.932481e-01  
 3.469043e-11   1.838592e-04   5.298534e-01   5.298537e-01   1.930826e-01  
 5.561782e-11   2.947744e-04   5.298529e-01   5.298533e-01   1.928486e-01  
 9.747262e-11   5.166048e-04   5.298521e-01   5.298524e-01   1.923811e-01  
 1.811822e-10   9.602657e-04   5.298503e-01   5.298506e-01   1.914496e-01  
 3.486013e-10   1.847587e-03   5.298466e-01   5.298470e-01   1.896005e-01  
 6.834397e-10   3.622230e-03   5.298391e-01   5.298395e-01   1.859622e-01  
 1.218302e-09   6.457004e-03   5.298263e-01   5.298267e-01   1.803347e-01  
 1.826455e-09   9.680213e-03   5.298105e-01   5.298110e-01   1.742460e-01  
 2.453094e-09   1.300140e-02   5.297927e-01   5.297932e-01   1.683534e-01  
 3.086732e-09   1.635968e-02   5.297731e-01   5.297737e-01   1.628109e-01  
 3.718153e-09   1.970621e-02   5.297517e-01   5.297523e-01   1.577067e-01  
 4.349146e-09   2.305047e-02   5.297283e-01   5.297290e-01   1.530085e-01  
 4.988830e-09   2.644080e-02   5.297023e-01   5.297031e-01   1.486266e-01  
 5.646989e-09   2.992904e-02   5.296731e-01   5.296739e-01   1.444782e-01  
 6.333703e-09   3.356862e-02   5.296395e-01   5.296404e-01   1.404910e-01  
 7.059759e-09   3.741672e-02   5.296003e-01   5.296013e-01   1.366006e-01  
 7.836436e-09   4.153311e-02   5.295536e-01   5.295548e-01   1.327508e-01  
 8.675700e-09   4.598121e-02   5.294971e-01   5.294984e-01   1.288914e-01  
 9.590592e-09   5.083013e-02   5.294275e-01   5.294290e-01   1.249754e-01  
 1.059059e-08   5.613013e-02   5.293404e-01   5.293422e-01   1.209767e-01  
 1.159059e-08   6.143013e-02   5.292403e-01   5.292423e-01   1.172156e-01  
 1.259059e-08   6.673013e-02   5.291253e-01   5.291276e-01   1.136475e-01  
 1.359059e-08   7.203013e-02   5.289932e-01   5.289959e-01   1.102384e-01  
 1.459059e-08   7.733013e-02   5.288416e-01   5.288448e-01   1.069620e-01  
 1.559059e-08   8.263013e-02   5.286678e-01   5.286715e-01   1.037975e-01  
 1.659059e-08   8.793013e-02   5.284687e-01   5.284730e-01   1.007284e-01  
 1.759059e-08   9.323013e-02   5.282410e-01   5.282459e-01   9.774156e-02  
 1.859059e-08   9.853013e-02   5.279807e-01   5.279865e-01   9.482604e-02  
 1.959059e-08   1.038301e-01   5.276838e-01   5.276904e-01   9.197285e-02  
 2.059059e-08   1.091301e-01   5.273454e-01   5.273531e-01   8.917441e-02  
 2.159059e-08   1.144301e-01   5.269605e-01   5.269695e-01   8.642423e-02  
 2.259059e-08   1.197301e-01   5.265235e-01   5.265339e-01   8.371668e-02  
 2.359059e-08   1.250301e-01   5.260283e-01   5.260404e-01   8.104678e-02  
 2.459059e-08   1.303301e-01   5.254682e-01   5.254823e-01   7.841011e-02  
 2.559059e-08   1.356301e-01   5.248363e-01   5.248526e-01   7.580266e-02  
 2.659059e-08   1.409301e-01   5.241248e-01   5.241438e-01   7.322077e-02  
 2.759059e-08   1.462301e-01   5.233256e-01   5.233476e-01   7.066109e-02  
 2.859059e-08   1.515301e-01   5.224299e-01   5.224554e-01   6.812051e-02  
 2.959059e-08   1.568301e-01   5.214281e-01   5.214577e-01   6.559623e-02  
 3.059059e-08   1.621301e-01   5.203101e-01   5.203444e-01   6.308569e-02  
 3.159059e-08   1.674301e-01   5.190647e-01   5.191044e-01   6.058662e-02  
 3.259059e-08   1.727301e-01   5.176796e-01   5.177254e-01   5.809714e-02  
 3.359059e-08   1.780301e-01   5.161406e-01   5.161936e-01   5.561579e-02  
 3.459059e-08   1.833301e-01   5.144317e-01   5.144930e-01   5.314168e-02  
 3.559059e-08   1.886301e-01   5.125335e-01   5.126043e-01   5.067462e-02  
 3.659059e-08   1.939301e-01   5.104219e-01   5.105039e-01   4.821542e-02  
 3.759059e-08   1.992301e-01   5.080659e-01   5.081613e-01   4.576615e-02  
 3.859059e-08   2.045301e-01   5.054233e-01   5.055350e-01   4.333061e-02  
 3.959059e-08   2.098301e-01   5.024325e-01   5.025653e-01   4.091489e-02  
 4.059059e-08   2.151301e-01   4.989981e-01   4.991596e-01   3.852802e-02  
 4.159059e-08   2.204301e-01   4.949579e-01   4.951622e-01   3.618250e-02  
 4.259059e-08   2.257301e-01   4.900043e-01   4.902808e-01   3.389436e-02  
 4.350296e-08   2.305657e-01   4.841303e-01   4.845363e-01   3.187247e-02  
 4.395655e-08   2.329697e-01   4.803747e-01   4.809010e-01   3.089528e-02  
 4.434248e-08   2.350151e-01   4.764793e-01   4.771696e-01   3.008016e-02  
 4.471695e-08   2.369998e-01   4.717858e-01   4.727371e-01   2.930450e-02  
 4.500165e-08   2.385087e-01   4.673559e-01   4.686254e-01   2.872527e-02  
 4.521747e-08   2.396526e-01   4.633368e-01   4.649582e-01   2.829238e-02  
 4.541188e-08   2.406829e-01   4.591216e-01   4.611757e-01   2.790713e-02  
 4.561649e-08   2.417674e-01   4.539898e-01   4.566548e-01   2.750649e-02  
 4.584806e-08   2.429947e-01   4.472630e-01   4.508592e-01   2.705914e-02  
 4.608691e-08   2.442606e-01   4.393259e-01   4.441999e-01   2.660454e-02  
 4.630944e-08   2.454400e-01   4.311268e-01   4.375213e-01   2.618724e-02  
 4.648236e-08   2.463565e-01   4.243142e-01   4.321330e-01   2.586716e-02  
 4.663318e-08   2.471558e-01   4.181173e-01   4.273657e-01   2.559097e-02  
 4.679436e-08   2.480101e-01   4.112805e-01   4.222618e-01   2.529888e-02  
 4.697348e-08   2.489594e-01   4.034724e-01   4.166406e-01   2.497796e-02  
 4.715964e-08   2.499461e-01   3.951710e-01   4.109138e-01   2.464857e-02  
 4.735986e-08   2.510072e-01   3.860743e-01   4.049365e-01   2.429895e-02  
 4.759463e-08   2.522515e-01   3.752332e-01   3.982147e-01   2.389510e-02  
 4.788353e-08   2.537827e-01   3.616937e-01   3.904080e-01   2.340708e-02  
 4.824736e-08   2.557110e-01   3.444090e-01   3.813147e-01   2.280624e-02  
 4.863645e-08   2.577731e-01   3.257184e-01   3.724499e-01   2.218031e-02  
 4.904454e-08   2.599360e-01   3.059573e-01   3.640012e-01   2.154173e-02  
 4.948307e-08   2.622602e-01   2.846106e-01   3.557518e-01   2.087527e-02  
 4.995645e-08   2.647692e-01   2.615092e-01   3.476523e-01   2.017797e-02  
 5.047072e-08   2.674948e-01   2.364260e-01   3.396306e-01   1.944534e-02  
 5.103499e-08   2.704854e-01   2.090268e-01   3.315843e-01   1.866991e-02  
 5.165843e-08   2.737897e-01   1.790570e-01   3.234327e-01   1.784594e-02  
 5.235068e-08   2.774586e-01   1.464196e-01   3.151073e-01   1.696904e-02  
 5.312243e-08   2.815489e-01   1.114833e-01   3.065424e-01   1.603568e-02  
 5.353897e-08   2.837565e-01   9.386539e-02   3.021796e-01   1.555026e-02  
 5.390433e-08   2.856929e-01   7.981336e-02   2.984821e-01   1.513462e-02  
 5.419865e-08   2.872528e-01   7.000261e-02   2.955837e-01   1.480647e-02  
 5.442368e-08   2.884455e-01   6.366414e-02   2.934125e-01   1.455952e-02  
 5.465714e-08   2.896828e-01   5.819518e-02   2.911985e-01   1.430684e-02  
 5.489657e-08   2.909518e-01   5.363988e-02   2.889667e-01   1.405137e-02  
 5.512193e-08   2.921462e-01   5.014669e-02   2.869001e-01   1.381425e-02  
 5.532774e-08   2.932370e-01   4.748107e-02   2.850401e-01   1.360048e-02  
 5.554066e-08   2.943655e-01   4.512929e-02   2.831424e-01   1.338209e-02  
 5.578428e-08   2.956567e-01   4.282603e-02   2.810022e-01   1.313558e-02  
 5.606227e-08   2.971300e-01   4.057932e-02   2.785993e-01   1.285863e-02  
 5.637565e-08   2.987909e-01   3.840811e-02   2.759376e-01   1.255186e-02  
 5.674287e-08   3.007372e-01   3.622066e-02   2.728788e-01   1.219956e-02  
 5.719034e-08   3.031088e-01   3.393070e-02   2.692333e-01   1.178051e-02  
 5.774124e-08   3.060285e-01   3.151363e-02   2.648600e-01   1.127964e-02  
 5.842450e-08   3.096498e-01   2.894665e-02   2.595967e-01   1.068071e-02  
 5.928873e-08   3.142302e-01   2.617248e-02   2.531698e-01   9.957237e-03  
 6.028873e-08   3.195302e-01   2.342249e-02   2.460204e-01   9.165599e-03  
 6.128873e-08   3.248302e-01   2.103028e-02   2.391456e-01   8.420666e-03  
 6.228873e-08   3.301302e-01   1.891210e-02   2.325175e-01   7.720481e-03  
 6.328873e-08   3.354302e-01   1.701589e-02   2.261132e-01   7.063300e-03  
 6.428873e-08   3.407302e-01   1.530661e-02   2.199143e-01   6.447547e-03  
 6.528873e-08   3.460302e-01   1.375924e-02   2.139049e-01   5.871765e-03  
 6.628873e-08   3.513302e-01   1.235494e-02   2.080720e-01   5.334581e-03  
 6.728873e-08   3.566302e-01   1.107900e-02   2.024042e-01   4.834668e-03  
 6.828873e-08   3.619302e-01   9.919418e-03   1.968918e-01   4.370717e-03  
 6.928873e-08   3.672302e-01   8.866132e-03   1.915263e-01   3.941408e-03  
 7.028873e-08   3.725302e-01   7.910445e-03   1.863002e-01   3.545392e-03  
 7.128873e-08   3.778302e-01   7.044650e-03   1.812071e-01   3.181277e-03  
 7.228873e-08   3.831302e-01   6.261772e-03   1.762415e-01   2.847615e-03  
 7.328873e-08   3.884302e-01   5.555394e-03   1.713989e-01   2.542907e-03  
 7.428873e-08   3.937302e-01   4.919533e-03   1.666757e-01   2.265598e-03  
 7.528873e-08   3.990302e-01   4.348562e-03   1.620696e-01   2.014090e-03  
 7.628873e-08   4.043302e-01   3.837158e-03   1.575795e-01   1.786755e-03  
 7.728873e-08   4.096302e-01   3.380277e-03   1.532062e-01   1.581945e-03  
 7.828873e-08   4.149302e-01   2.973135e-03   1.489522e-01   1.398018e-03  
 7.928873e-08   4.202302e-01   2.611213e-03   1.448228e-01   1.233347e-03  
 8.028873e-08   4.255302e-01   2.290249e-03   1.408263e-01   1.086340e-03  
 8.128873e-08   4.308302e-01   2.006249e-03   1.369745e-01   9.554604e-04  
 8.228873e-08   4.361302e-01   1.755488e-03   1.332834e-01   8.392316e-04  
 8.328873e-08   4.414302e-01   1.534511e-03   1.297730e-01   7.362555e-04  
 8.428873e-08   4.467302e-01   1.340135e-03   1.264661e-01   6.452170e-04  
 8.528873e-08   4.520302e-01   1.169442e-03   1.233866e-01   5.648899e-04  
 8.628873e-08   4.573302e-01   1.019771e-03   1.205554e-01   4.941400e-04  
 8.728873e-08   4.626302e-01   8.887122e-04   1.179863e-01   4.319252e-04  
 8.828873e-08   4.679302e-01   7.740889e-04   1.156827e-01   3.772946e-04  
 8.928873e-08   4.732302e-01   6.739483e-04   1.136367e-01   3.293853e-04  
 9.028873e-08   4.785302e-01   5.865435e-04   1.118308e-01   2.874183e-04  
 9.128873e-08   4.838302e-01   5.103183e-04   1.102411e-01   2.506937e-04  
 9.228873e-08   4.891302e-01   4.438910e-04   1.088417e-01   2.185852e-04  
 9.328873e-08   4.944302e-01   3.860384e-04   1.076068e-01   1.905346e-04  
 9.428873e-08   4.997302e-01   3.356809e-04   1.065126e-01   1.660457e-04  
 9.528873e-08   5.050302e-01   2.918677e-04   1.055384e-01   1.446791e-04  
 9.628873e-08   5.103302e-01   2.537632e-04   1.046666e-01   1.260463e-04  
 9.728873e-08   5.156302e-01   2.206345e-04   1.038820e-01   1.098049e-04  
 9.828873e-08   5.209302e-01   1.918398e-04   1.031723e-01   9.565339e-05  
 9.928873e-08   5.262302e-01   1.668176e-04   1.025272e-01   8.332691e-05  
 1.000000e-07   5.300000e-01   1.510439e-04   1.021028e-01   7.554127e-05  
