
time (s)       getData("/nvtc getData("/SNMh getData("/SNMr getData("/SNMw

 0.000000e+00   0.000000e+00   4.498666e-01   4.498669e-01   1.670175e-01  
 2.133437e-11   9.600468e-05   4.498678e-01   4.498682e-01   1.667909e-01  
 3.766765e-11   1.695044e-04   4.498676e-01   4.498679e-01   1.666004e-01  
 6.006057e-11   2.702725e-04   4.498672e-01   4.498676e-01   1.663371e-01  
 1.048464e-10   4.718088e-04   4.498665e-01   4.498668e-01   1.658105e-01  
 1.944180e-10   8.748813e-04   4.498650e-01   4.498653e-01   1.647601e-01  
 3.735614e-10   1.681026e-03   4.498619e-01   4.498623e-01   1.626707e-01  
 7.318480e-10   3.293316e-03   4.498556e-01   4.498560e-01   1.585421e-01  
 1.311272e-09   5.900725e-03   4.498448e-01   4.498452e-01   1.520331e-01  
 1.958656e-09   8.813955e-03   4.498317e-01   4.498321e-01   1.450614e-01  
 2.603599e-09   1.171619e-02   4.498176e-01   4.498181e-01   1.384983e-01  
 3.231225e-09   1.454051e-02   4.498027e-01   4.498032e-01   1.325344e-01  
 3.832317e-09   1.724542e-02   4.497873e-01   4.497879e-01   1.272483e-01  
 4.410336e-09   1.984651e-02   4.497714e-01   4.497720e-01   1.225697e-01  
 4.976164e-09   2.239274e-02   4.497546e-01   4.497553e-01   1.183673e-01  
 5.540517e-09   2.493232e-02   4.497367e-01   4.497375e-01   1.145272e-01  
 6.113400e-09   2.751030e-02   4.497172e-01   4.497180e-01   1.109575e-01  
 6.704571e-09   3.017057e-02   4.496955e-01   4.496963e-01   1.075834e-01  
 7.323436e-09   3.295546e-02   4.496710e-01   4.496719e-01   1.043451e-01  
 7.979297e-09   3.590683e-02   4.496429e-01   4.496439e-01   1.011945e-01  
 8.681741e-09   3.906783e-02   4.496101e-01   4.496112e-01   9.809086e-02  
 9.440939e-09   4.248422e-02   4.495712e-01   4.495724e-01   9.499850e-02  
 1.026788e-08   4.620548e-02   4.495244e-01   4.495258e-01   9.188508e-02  
 1.117465e-08   5.028594e-02   4.494672e-01   4.494688e-01   8.872009e-02  
 1.217459e-08   5.478569e-02   4.493961e-01   4.493979e-01   8.547394e-02  
 1.317459e-08   5.928569e-02   4.493155e-01   4.493175e-01   8.243475e-02  
 1.417459e-08   6.378569e-02   4.492241e-01   4.492264e-01   7.956459e-02  
 1.517459e-08   6.828569e-02   4.491204e-01   4.491231e-01   7.683458e-02  
 1.617459e-08   7.278569e-02   4.490028e-01   4.490059e-01   7.422251e-02  
 1.717459e-08   7.728569e-02   4.488696e-01   4.488731e-01   7.171104e-02  
 1.817459e-08   8.178569e-02   4.487185e-01   4.487226e-01   6.928648e-02  
 1.917459e-08   8.628569e-02   4.485473e-01   4.485520e-01   6.693782e-02  
 2.017459e-08   9.078569e-02   4.483533e-01   4.483587e-01   6.465612e-02  
 2.117459e-08   9.528569e-02   4.481335e-01   4.481398e-01   6.243402e-02  
 2.217459e-08   9.978569e-02   4.478847e-01   4.478918e-01   6.026539e-02  
 2.317459e-08   1.042856e-01   4.476029e-01   4.476112e-01   5.814505e-02  
 2.417459e-08   1.087856e-01   4.472840e-01   4.472935e-01   5.606859e-02  
 2.517459e-08   1.132856e-01   4.469231e-01   4.469342e-01   5.403219e-02  
 2.617459e-08   1.177856e-01   4.465151e-01   4.465279e-01   5.203254e-02  
 2.717459e-08   1.222856e-01   4.460538e-01   4.460686e-01   5.006672e-02  
 2.817459e-08   1.267856e-01   4.455324e-01   4.455497e-01   4.813217e-02  
 2.917459e-08   1.312856e-01   4.449434e-01   4.449634e-01   4.622661e-02  
 3.017459e-08   1.357856e-01   4.442780e-01   4.443014e-01   4.434806e-02  
 3.117459e-08   1.402856e-01   4.435265e-01   4.435539e-01   4.249480e-02  
 3.217459e-08   1.447856e-01   4.426777e-01   4.427097e-01   4.066539e-02  
 3.317459e-08   1.492856e-01   4.417186e-01   4.417561e-01   3.885873e-02  
 3.417459e-08   1.537856e-01   4.406341e-01   4.406781e-01   3.707408e-02  
 3.517459e-08   1.582856e-01   4.394063e-01   4.394582e-01   3.531117e-02  
 3.617459e-08   1.627856e-01   4.380135e-01   4.380749e-01   3.357030e-02  
 3.717459e-08   1.672856e-01   4.364285e-01   4.365015e-01   3.185245e-02  
 3.817459e-08   1.717856e-01   4.346166e-01   4.347039e-01   3.015947e-02  
 3.917459e-08   1.762856e-01   4.325302e-01   4.326356e-01   2.849419e-02  
 4.017459e-08   1.807856e-01   4.301011e-01   4.302301e-01   2.686050e-02  
 4.117459e-08   1.852856e-01   4.272229e-01   4.273850e-01   2.526330e-02  
 4.217459e-08   1.897856e-01   4.237135e-01   4.239259e-01   2.370832e-02  
 4.317459e-08   1.942856e-01   4.192191e-01   4.195199e-01   2.220170e-02  
 4.403353e-08   1.981509e-01   4.139718e-01   4.144288e-01   2.095075e-02  
 4.444930e-08   2.000218e-01   4.106393e-01   4.112354e-01   2.036064e-02  
 4.480481e-08   2.016216e-01   4.071241e-01   4.079095e-01   1.986437e-02  
 4.513688e-08   2.031159e-01   4.030469e-01   4.041122e-01   1.940790e-02  
 4.540332e-08   2.043149e-01   3.990122e-01   4.004217e-01   1.904669e-02  
 4.561314e-08   2.052591e-01   3.952219e-01   3.970145e-01   1.876545e-02  
 4.580796e-08   2.061358e-01   3.911319e-01   3.933985e-01   1.850684e-02  
 4.602651e-08   2.071193e-01   3.858261e-01   3.887917e-01   1.821970e-02  
 4.626213e-08   2.081796e-01   3.792446e-01   3.831942e-01   1.791362e-02  
 4.649844e-08   2.092430e-01   3.718239e-01   3.770265e-01   1.761032e-02  
 4.669241e-08   2.101158e-01   3.652215e-01   3.716671e-01   1.736413e-02  
 4.685268e-08   2.108370e-01   3.594883e-01   3.671174e-01   1.716258e-02  
 4.701042e-08   2.115469e-01   3.536508e-01   3.625916e-01   1.696589e-02  
 4.718552e-08   2.123348e-01   3.469909e-01   3.575690e-01   1.674949e-02  
 4.737246e-08   2.131761e-01   3.397177e-01   3.522649e-01   1.652071e-02  
 4.756966e-08   2.140635e-01   3.319050e-01   3.467877e-01   1.628189e-02  
 4.779172e-08   2.150627e-01   3.229767e-01   3.408145e-01   1.601607e-02  
 4.805727e-08   2.162577e-01   3.121630e-01   3.339900e-01   1.570249e-02  
 4.838421e-08   2.177289e-01   2.987008e-01   3.261044e-01   1.532281e-02  
 4.876020e-08   2.194209e-01   2.830770e-01   3.177466e-01   1.489488e-02  
 4.915335e-08   2.211900e-01   2.666299e-01   3.097762e-01   1.445731e-02  
 4.956454e-08   2.230404e-01   2.493518e-01   3.021968e-01   1.401038e-02  
 5.000109e-08   2.250049e-01   2.309625e-01   2.948872e-01   1.354772e-02  
 5.046706e-08   2.271017e-01   2.113239e-01   2.877984e-01   1.306715e-02  
 5.096858e-08   2.293586e-01   1.902230e-01   2.808579e-01   1.256499e-02  
 5.151331e-08   2.318099e-01   1.674099e-01   2.739894e-01   1.203692e-02  
 5.210895e-08   2.344903e-01   1.426879e-01   2.671334e-01   1.147972e-02  
 5.276379e-08   2.374370e-01   1.159735e-01   2.602379e-01   1.089093e-02  
 5.348701e-08   2.406915e-01   8.762266e-02   2.532548e-01   1.026878e-02  
 5.384956e-08   2.423230e-01   7.439040e-02   2.499636e-01   9.967705e-03  
 5.416510e-08   2.437429e-01   6.392564e-02   2.471985e-01   9.711415e-03  
 5.443509e-08   2.449579e-01   5.613633e-02   2.449000e-01   9.496317e-03  
 5.466017e-08   2.459707e-01   5.064353e-02   2.430282e-01   9.319906e-03  
 5.489495e-08   2.470272e-01   4.589676e-02   2.411160e-01   9.138685e-03  
 5.512957e-08   2.480830e-01   4.203950e-02   2.392440e-01   8.960402e-03  
 5.535209e-08   2.490844e-01   3.904408e-02   2.375026e-01   8.793886e-03  
 5.556284e-08   2.500327e-01   3.667068e-02   2.358822e-01   8.638468e-03  
 5.578578e-08   2.510360e-01   3.453738e-02   2.341972e-01   8.476443e-03  
 5.604051e-08   2.521823e-01   3.246258e-02   2.323068e-01   8.294303e-03  
 5.633120e-08   2.534904e-01   3.044976e-02   2.301925e-01   8.090280e-03  
 5.666282e-08   2.549827e-01   2.849503e-02   2.278331e-01   7.862453e-03  
 5.705514e-08   2.567481e-01   2.652521e-02   2.251093e-01   7.599583e-03  
 5.753431e-08   2.589044e-01   2.448176e-02   2.218743e-01   7.288123e-03  
 5.812543e-08   2.615644e-01   2.234986e-02   2.180104e-01   6.918097e-03  
 5.886159e-08   2.648771e-01   2.011502e-02   2.133745e-01   6.478580e-03  
 5.976411e-08   2.689384e-01   1.781827e-02   2.079265e-01   5.970792e-03  
 6.076411e-08   2.734384e-01   1.567782e-02   2.021543e-01   5.446365e-03  
 6.176411e-08   2.779384e-01   1.385112e-02   1.966239e-01   4.960150e-03  
 6.276411e-08   2.824384e-01   1.226787e-02   1.913050e-01   4.510185e-03  
 6.376411e-08   2.869384e-01   1.088206e-02   1.861732e-01   4.094560e-03  
 6.476411e-08   2.914384e-01   9.661253e-03   1.812081e-01   3.711411e-03  
 6.576411e-08   2.959384e-01   8.581196e-03   1.763925e-01   3.358917e-03  
 6.676411e-08   3.004384e-01   7.622985e-03   1.717122e-01   3.035298e-03  
 6.776411e-08   3.049384e-01   6.771346e-03   1.671548e-01   2.738812e-03  
 6.876411e-08   3.094384e-01   6.013607e-03   1.627098e-01   2.467756e-03  
 6.976411e-08   3.139384e-01   5.339035e-03   1.583682e-01   2.220470e-03  
 7.076411e-08   3.184384e-01   4.738387e-03   1.541221e-01   1.995338e-03  
 7.176411e-08   3.229384e-01   4.203609e-03   1.499651e-01   1.790793e-03  
 7.276411e-08   3.274384e-01   3.727611e-03   1.458915e-01   1.605320e-03  
 7.376411e-08   3.319384e-01   3.304114e-03   1.418970e-01   1.437463e-03  
 7.476411e-08   3.364384e-01   2.927521e-03   1.379779e-01   1.285828e-03  
 7.576411e-08   3.409384e-01   2.592831e-03   1.341318e-01   1.149086e-03  
 7.676411e-08   3.454384e-01   2.295562e-03   1.303574e-01   1.025980e-03  
 7.776411e-08   3.499384e-01   2.031694e-03   1.266545e-01   9.153204e-04  
 7.876411e-08   3.544384e-01   1.797614e-03   1.230243e-01   8.159938e-04  
 7.976411e-08   3.589384e-01   1.590082e-03   1.194697e-01   7.269595e-04  
 8.076411e-08   3.634384e-01   1.406188e-03   1.159955e-01   6.472502e-04  
 8.176411e-08   3.679384e-01   1.243322e-03   1.126088e-01   5.759707e-04  
 8.276411e-08   3.724384e-01   1.099148e-03   1.093191e-01   5.122957e-04  
 8.376411e-08   3.769384e-01   9.715743e-04   1.061392e-01   4.554678e-04  
 8.476411e-08   3.814384e-01   8.587308e-04   1.030846e-01   4.047941e-04  
 8.576411e-08   3.859384e-01   7.589496e-04   1.001735e-01   3.596429e-04  
 8.676411e-08   3.904384e-01   6.707433e-04   9.742568e-02   3.194401e-04  
 8.776411e-08   3.949384e-01   5.927875e-04   9.485983e-02   2.836653e-04  
 8.876411e-08   3.994384e-01   5.239044e-04   9.249152e-02   2.518483e-04  
 8.976411e-08   4.039384e-01   4.630474e-04   9.033002e-02   2.235648e-04  
 9.076411e-08   4.084384e-01   4.092878e-04   8.837666e-02   1.984331e-04  
 9.176411e-08   4.129384e-01   3.618019e-04   8.662473e-02   1.761102e-04  
 9.276411e-08   4.174384e-01   3.198600e-04   8.506104e-02   1.562885e-04  
 9.376411e-08   4.219384e-01   2.828158e-04   8.366827e-02   1.386928e-04  
 9.476411e-08   4.264384e-01   2.500976e-04   8.242739e-02   1.230768e-04  
 9.576411e-08   4.309384e-01   2.211998e-04   8.131950e-02   1.092206e-04  
 9.676411e-08   4.354384e-01   1.956754e-04   8.032703e-02   9.692809e-05  
 9.776411e-08   4.399384e-01   1.731295e-04   7.943429e-02   8.602425e-05  
 9.876411e-08   4.444384e-01   1.532131e-04   7.862764e-02   7.635343e-05  
 9.938205e-08   4.472192e-01   1.420846e-04   7.816706e-02   7.093267e-05  
 1.000000e-07   4.500000e-01   1.317761e-04   7.773245e-02   6.589981e-05  
