
time (s)       getData("/nvtc getData("/SNMh getData("/SNMr getData("/SNMw

 0.000000e+00   0.000000e+00   1.289977e+00   1.289977e+00   5.100895e-01  
 1.309725e-11   1.689545e-04   1.289981e+00   1.289981e+00   5.099988e-01  
 2.244446e-11   2.895336e-04   1.289981e+00   1.289981e+00   5.099072e-01  
 3.711226e-11   4.787481e-04   1.289981e+00   1.289981e+00   5.097618e-01  
 6.644784e-11   8.571772e-04   1.289980e+00   1.289980e+00   5.094708e-01  
 1.251190e-10   1.614035e-03   1.289980e+00   1.289980e+00   5.088893e-01  
 1.805632e-10   2.329266e-03   1.289979e+00   1.289979e+00   5.083405e-01  
 2.417836e-10   3.119008e-03   1.289979e+00   1.289979e+00   5.077351e-01  
 3.036141e-10   3.916622e-03   1.289978e+00   1.289978e+00   5.071244e-01  
 3.679236e-10   4.746215e-03   1.289977e+00   1.289977e+00   5.064901e-01  
 4.339544e-10   5.598012e-03   1.289976e+00   1.289976e+00   5.058396e-01  
 5.021511e-10   6.477749e-03   1.289976e+00   1.289976e+00   5.051688e-01  
 5.724983e-10   7.385228e-03   1.289975e+00   1.289975e+00   5.044778e-01  
 6.451984e-10   8.323059e-03   1.289974e+00   1.289974e+00   5.037648e-01  
 7.203854e-10   9.292971e-03   1.289973e+00   1.289973e+00   5.030286e-01  
 7.982454e-10   1.029736e-02   1.289972e+00   1.289972e+00   5.022676e-01  
 8.789692e-10   1.133870e-02   1.289971e+00   1.289971e+00   5.014800e-01  
 9.627760e-10   1.241981e-02   1.289970e+00   1.289970e+00   5.006639e-01  
 1.049907e-09   1.354380e-02   1.289968e+00   1.289968e+00   4.998171e-01  
 1.140637e-09   1.471421e-02   1.289967e+00   1.289967e+00   4.989374e-01  
 1.235271e-09   1.593499e-02   1.289965e+00   1.289965e+00   4.980218e-01  
 1.334158e-09   1.721063e-02   1.289964e+00   1.289964e+00   4.970674e-01  
 1.437694e-09   1.854625e-02   1.289962e+00   1.289962e+00   4.960708e-01  
 1.532065e-09   1.976364e-02   1.289960e+00   1.289960e+00   4.951647e-01  
 1.647408e-09   2.125156e-02   1.289958e+00   1.289958e+00   4.940604e-01  
 1.752159e-09   2.260285e-02   1.289956e+00   1.289956e+00   4.930604e-01  
 1.855377e-09   2.393437e-02   1.289954e+00   1.289954e+00   4.920779e-01  
 1.964580e-09   2.534308e-02   1.289952e+00   1.289952e+00   4.910416e-01  
 2.077989e-09   2.680606e-02   1.289949e+00   1.289949e+00   4.899686e-01  
 2.195943e-09   2.832766e-02   1.289946e+00   1.289946e+00   4.888564e-01  
 2.319923e-09   2.992700e-02   1.289943e+00   1.289943e+00   4.876915e-01  
 2.450548e-09   3.161208e-02   1.289940e+00   1.289940e+00   4.864688e-01  
 2.588457e-09   3.339110e-02   1.289936e+00   1.289936e+00   4.851830e-01  
 2.734579e-09   3.527607e-02   1.289931e+00   1.289931e+00   4.838265e-01  
 2.889931e-09   3.728011e-02   1.289926e+00   1.289926e+00   4.823909e-01  
 3.055675e-09   3.941821e-02   1.289921e+00   1.289921e+00   4.808669e-01  
 3.233219e-09   4.170852e-02   1.289914e+00   1.289914e+00   4.792432e-01  
 3.424258e-09   4.417293e-02   1.289907e+00   1.289907e+00   4.775062e-01  
 3.630858e-09   4.683807e-02   1.289898e+00   1.289898e+00   4.756395e-01  
 3.855576e-09   4.973693e-02   1.289887e+00   1.289887e+00   4.736231e-01  
 4.101620e-09   5.291090e-02   1.289874e+00   1.289874e+00   4.714320e-01  
 4.373086e-09   5.641281e-02   1.289858e+00   1.289858e+00   4.690347e-01  
 4.675298e-09   6.031135e-02   1.289838e+00   1.289838e+00   4.663905e-01  
 5.015340e-09   6.469788e-02   1.289813e+00   1.289813e+00   4.634459e-01  
 5.402872e-09   6.969705e-02   1.289778e+00   1.289778e+00   4.601288e-01  
 5.851493e-09   7.548427e-02   1.289731e+00   1.289731e+00   4.563391e-01  
 6.381059e-09   8.231566e-02   1.289663e+00   1.289663e+00   4.519323e-01  
 7.021917e-09   9.058273e-02   1.289557e+00   1.289557e+00   4.466909e-01  
 7.823186e-09   1.009191e-01   1.289380e+00   1.289380e+00   4.402681e-01  
 8.823186e-09   1.138191e-01   1.289061e+00   1.289061e+00   4.324334e-01  
 9.823186e-09   1.267191e-01   1.288590e+00   1.288590e+00   4.247694e-01  
 1.082318e-08   1.396191e-01   1.287908e+00   1.287908e+00   4.172412e-01  
 1.182318e-08   1.525191e-01   1.286943e+00   1.286943e+00   4.098112e-01  
 1.279195e-08   1.650162e-01   1.285667e+00   1.285668e+00   4.026674e-01  
 1.375295e-08   1.774131e-01   1.284012e+00   1.284013e+00   3.955920e-01  
 1.475295e-08   1.903131e-01   1.281838e+00   1.281839e+00   3.881923e-01  
 1.575295e-08   2.032131e-01   1.279197e+00   1.279198e+00   3.807025e-01  
 1.675295e-08   2.161131e-01   1.276119e+00   1.276120e+00   3.730722e-01  
 1.775295e-08   2.290131e-01   1.272658e+00   1.272659e+00   3.652608e-01  
 1.875295e-08   2.419131e-01   1.268873e+00   1.268875e+00   3.572429e-01  
 1.975295e-08   2.548131e-01   1.264817e+00   1.264819e+00   3.490091e-01  
 2.075295e-08   2.677131e-01   1.260524e+00   1.260526e+00   3.405625e-01  
 2.175295e-08   2.806131e-01   1.256011e+00   1.256014e+00   3.319120e-01  
 2.275295e-08   2.935131e-01   1.251282e+00   1.251286e+00   3.230678e-01  
 2.375295e-08   3.064131e-01   1.246330e+00   1.246334e+00   3.140385e-01  
 2.475295e-08   3.193131e-01   1.241145e+00   1.241150e+00   3.048317e-01  
 2.575295e-08   3.322131e-01   1.235717e+00   1.235723e+00   2.954545e-01  
 2.675295e-08   3.451131e-01   1.230037e+00   1.230045e+00   2.859148e-01  
 2.775295e-08   3.580131e-01   1.224100e+00   1.224110e+00   2.762221e-01  
 2.875295e-08   3.709131e-01   1.217903e+00   1.217914e+00   2.663876e-01  
 2.975295e-08   3.838131e-01   1.211443e+00   1.211458e+00   2.564241e-01  
 3.075295e-08   3.967131e-01   1.204720e+00   1.204739e+00   2.463463e-01  
 3.175295e-08   4.096131e-01   1.197733e+00   1.197758e+00   2.361699e-01  
 3.275295e-08   4.225131e-01   1.190480e+00   1.190513e+00   2.259121e-01  
 3.375295e-08   4.354131e-01   1.182955e+00   1.182999e+00   2.155910e-01  
 3.475295e-08   4.483131e-01   1.175146e+00   1.175207e+00   2.052261e-01  
 3.575295e-08   4.612131e-01   1.167035e+00   1.167118e+00   1.948382e-01  
 3.675295e-08   4.741131e-01   1.158589e+00   1.158705e+00   1.844506e-01  
 3.775295e-08   4.870131e-01   1.149753e+00   1.149919e+00   1.740901e-01  
 3.875295e-08   4.999131e-01   1.140436e+00   1.140677e+00   1.637908e-01  
 3.975295e-08   5.128131e-01   1.130473e+00   1.130834e+00   1.536013e-01  
 4.075295e-08   5.257131e-01   1.119542e+00   1.120114e+00   1.436023e-01  
 4.175295e-08   5.386131e-01   1.106924e+00   1.107923e+00   1.339474e-01  
 4.275295e-08   5.515131e-01   1.090686e+00   1.092815e+00   1.249351e-01  
 4.337852e-08   5.595829e-01   1.076132e+00   1.080330e+00   1.198208e-01  
 4.397139e-08   5.672310e-01   1.055033e+00   1.064740e+00   1.154473e-01  
 4.442799e-08   5.731211e-01   1.030697e+00   1.050017e+00   1.124030e-01  
 4.476568e-08   5.774773e-01   1.007492e+00   1.038217e+00   1.103198e-01  
 4.506603e-08   5.813518e-01   9.837096e-01   1.027563e+00   1.085747e-01  
 4.536974e-08   5.852697e-01   9.571019e-01   1.016906e+00   1.069014e-01  
 4.568141e-08   5.892902e-01   9.275313e-01   1.006226e+00   1.052678e-01  
 4.600852e-08   5.935099e-01   8.943811e-01   9.953500e-01   1.036322e-01  
 4.635762e-08   5.980133e-01   8.569655e-01   9.841250e-01   1.019629e-01  
 4.673254e-08   6.028498e-01   8.148316e-01   9.724870e-01   1.002444e-01  
 4.713986e-08   6.081043e-01   7.672496e-01   9.602932e-01   9.845090e-02  
 4.759224e-08   6.139400e-01   7.128322e-01   9.472426e-01   9.653362e-02  
 4.811564e-08   6.206917e-01   6.487396e-01   9.327122e-01   9.439627e-02  
 4.878372e-08   6.293100e-01   5.668666e-01   9.149262e-01   9.177020e-02  
 4.951055e-08   6.386861e-01   4.801840e-01   8.963911e-01   8.901729e-02  
 5.022550e-08   6.479090e-01   3.999822e-01   8.788489e-01   8.639437e-02  
 5.080030e-08   6.553239e-01   3.408212e-01   8.651668e-01   8.433646e-02  
 5.128194e-08   6.615370e-01   2.958242e-01   8.539548e-01   8.264227e-02  
 5.171297e-08   6.670973e-01   2.597266e-01   8.440966e-01   8.114706e-02  
 5.210244e-08   6.721215e-01   2.311459e-01   8.353202e-01   7.981168e-02  
 5.245451e-08   6.766632e-01   2.093880e-01   8.274862e-01   7.861645e-02  
 5.277127e-08   6.807494e-01   1.937644e-01   8.205140e-01   7.755022e-02  
 5.305957e-08   6.844684e-01   1.828408e-01   8.142278e-01   7.658699e-02  
 5.333774e-08   6.880568e-01   1.747473e-01   8.082136e-01   7.566378e-02  
 5.362979e-08   6.918243e-01   1.681160e-01   8.019512e-01   7.470083e-02  
 5.395688e-08   6.960438e-01   1.622050e-01   7.949980e-01   7.362974e-02  
 5.434055e-08   7.009931e-01   1.565870e-01   7.869204e-01   7.238301e-02  
 5.480483e-08   7.069824e-01   1.509183e-01   7.772530e-01   7.088767e-02  
 5.538956e-08   7.145254e-01   1.448573e-01   7.652368e-01   6.902433e-02  
 5.612953e-08   7.240709e-01   1.382061e-01   7.502703e-01   6.669675e-02  
 5.707949e-08   7.363255e-01   1.306428e-01   7.314258e-01   6.375630e-02  
 5.807949e-08   7.492255e-01   1.233993e-01   7.120126e-01   6.071673e-02  
 5.907949e-08   7.621255e-01   1.166359e-01   6.930144e-01   5.773293e-02  
 6.007949e-08   7.750255e-01   1.102214e-01   6.744187e-01   5.480429e-02  
 6.107949e-08   7.879255e-01   1.040761e-01   6.562191e-01   5.193092e-02  
 6.207949e-08   8.008255e-01   9.815514e-02   6.384135e-01   4.911349e-02  
 6.307949e-08   8.137255e-01   9.243017e-02   6.210040e-01   4.635315e-02  
 6.407949e-08   8.266255e-01   8.688349e-02   6.039957e-01   4.365144e-02  
 6.507949e-08   8.395255e-01   8.150400e-02   5.873960e-01   4.101017e-02  
 6.607949e-08   8.524255e-01   7.628502e-02   5.712148e-01   3.843140e-02  
 6.707949e-08   8.653255e-01   7.122284e-02   5.554632e-01   3.591730e-02  
 6.807949e-08   8.782255e-01   6.631567e-02   5.401536e-01   3.347005e-02  
 6.907949e-08   8.911255e-01   6.156291e-02   5.252994e-01   3.109177e-02  
 7.007949e-08   9.040255e-01   5.696448e-02   5.109141e-01   2.878432e-02  
 7.107949e-08   9.169255e-01   5.252030e-02   4.970116e-01   2.654918e-02  
 7.207949e-08   9.298255e-01   4.822982e-02   4.836060e-01   2.438730e-02  
 7.307949e-08   9.427255e-01   4.409159e-02   4.707113e-01   2.229897e-02  
 7.407949e-08   9.556255e-01   4.010305e-02   4.583428e-01   2.028370e-02  
 7.507949e-08   9.685255e-01   3.626049e-02   4.465177e-01   1.834029e-02  
 7.607949e-08   9.814255e-01   3.255941e-02   4.352579e-01   1.646704e-02  
 7.707949e-08   9.943255e-01   2.899544e-02   4.245927e-01   1.466218e-02  
 7.807949e-08   1.007225e+00   2.556587e-02   4.145633e-01   1.292474e-02  
 7.907949e-08   1.020125e+00   2.227195e-02   4.052260e-01   1.125566e-02  
 8.007949e-08   1.033025e+00   1.912156e-02   3.966527e-01   9.659243e-03  
 8.107949e-08   1.045925e+00   1.613190e-02   3.889245e-01   8.144472e-03  
 8.207949e-08   1.058825e+00   1.333089e-02   3.821141e-01   6.725752e-03  
 8.307949e-08   1.071725e+00   1.075611e-02   3.762614e-01   5.422349e-03  
 8.407949e-08   1.084625e+00   8.450001e-03   3.713532e-01   4.255914e-03  
 8.499648e-08   1.096454e+00   6.604786e-03   3.676234e-01   3.323563e-03  
 8.579518e-08   1.106757e+00   5.224044e-03   3.649081e-01   2.626667e-03  
 8.652086e-08   1.116119e+00   4.155791e-03   3.628139e-01   2.088067e-03  
 8.720616e-08   1.124959e+00   3.305406e-03   3.611159e-01   1.659749e-03  
 8.786990e-08   1.133521e+00   2.619318e-03   3.596922e-01   1.314513e-03  
 8.853035e-08   1.142041e+00   2.058497e-03   3.584588e-01   1.032560e-03  
 8.920376e-08   1.150728e+00   1.596714e-03   3.573604e-01   8.005870e-04  
 8.990458e-08   1.159769e+00   1.216651e-03   3.563609e-01   6.098050e-04  
 9.064805e-08   1.169359e+00   9.057442e-04   3.554347e-01   4.538406e-04  
 9.145198e-08   1.179730e+00   6.543944e-04   3.545621e-01   3.278258e-04  
 9.233851e-08   1.191166e+00   4.549404e-04   3.537278e-01   2.278795e-04  
 9.333710e-08   1.204048e+00   3.008733e-04   3.529191e-01   1.507098e-04  
 9.433710e-08   1.216948e+00   1.984992e-04   3.522224e-01   9.945001e-05  
 9.509595e-08   1.226737e+00   1.448002e-04   3.517566e-01   7.256868e-05  
 9.563568e-08   1.233700e+00   1.157840e-04   3.514538e-01   5.804543e-05  
 9.603555e-08   1.238858e+00   9.816981e-05   3.512432e-01   4.922996e-05  
 9.634328e-08   1.242828e+00   8.650529e-05   3.510885e-01   4.339253e-05  
 9.658998e-08   1.246010e+00   7.819290e-05   3.509690e-01   3.923283e-05  
 9.679643e-08   1.248673e+00   7.187545e-05   3.508719e-01   3.607157e-05  
 9.697503e-08   1.250977e+00   6.683987e-05   3.507899e-01   3.355183e-05  
 9.713339e-08   1.253020e+00   6.268408e-05   3.507188e-01   3.147238e-05  
 9.727649e-08   1.254866e+00   5.916197e-05   3.506557e-01   2.971004e-05  
 9.740768e-08   1.256559e+00   5.611647e-05   3.505989e-01   2.818621e-05  
 9.752922e-08   1.258126e+00   5.344282e-05   3.505471e-01   2.684846e-05  
 9.764273e-08   1.259591e+00   5.106764e-05   3.504994e-01   2.566007e-05  
 9.774943e-08   1.260967e+00   4.893755e-05   3.504553e-01   2.459432e-05  
 9.785022e-08   1.262267e+00   4.701246e-05   3.504141e-01   2.363115e-05  
 9.794583e-08   1.263501e+00   4.526141e-05   3.503755e-01   2.275508e-05  
 9.803933e-08   1.264707e+00   4.361656e-05   3.503381e-01   2.193214e-05  
 9.812857e-08   1.265858e+00   4.210680e-05   3.503029e-01   2.117680e-05  
 9.821454e-08   1.266967e+00   4.070570e-05   3.502694e-01   2.047583e-05  
 9.829711e-08   1.268032e+00   3.940752e-05   3.502375e-01   1.982636e-05  
 9.837668e-08   1.269059e+00   3.819922e-05   3.502071e-01   1.922186e-05  
 9.845338e-08   1.270048e+00   3.707259e-05   3.501780e-01   1.865823e-05  
 9.852745e-08   1.271004e+00   3.601916e-05   3.501502e-01   1.813122e-05  
 9.859905e-08   1.271927e+00   3.503210e-05   3.501236e-01   1.763742e-05  
 9.866834e-08   1.272821e+00   3.410517e-05   3.500981e-01   1.717370e-05  
 9.873547e-08   1.273687e+00   3.323300e-05   3.500735e-01   1.673739e-05  
 9.880057e-08   1.274527e+00   3.241081e-05   3.500499e-01   1.632608e-05  
 9.886375e-08   1.275342e+00   3.163437e-05   3.500272e-01   1.593766e-05  
 9.892513e-08   1.276134e+00   3.089992e-05   3.500053e-01   1.557024e-05  
 9.898481e-08   1.276904e+00   3.020409e-05   3.499841e-01   1.522216e-05  
 9.904306e-08   1.277655e+00   2.954174e-05   3.499636e-01   1.489082e-05  
 9.910122e-08   1.278405e+00   2.889674e-05   3.499433e-01   1.456816e-05  
 9.915922e-08   1.279153e+00   2.826942e-05   3.499232e-01   1.425435e-05  
 9.921721e-08   1.279902e+00   2.765749e-05   3.499032e-01   1.394824e-05  
 9.927517e-08   1.280649e+00   2.706080e-05   3.498834e-01   1.364975e-05  
 9.933314e-08   1.281397e+00   2.647874e-05   3.498637e-01   1.335859e-05  
 9.939110e-08   1.282145e+00   2.591100e-05   3.498442e-01   1.307459e-05  
 9.944905e-08   1.282892e+00   2.535720e-05   3.498247e-01   1.279756e-05  
 9.950701e-08   1.283640e+00   2.481700e-05   3.498055e-01   1.252734e-05  
 9.956496e-08   1.284388e+00   2.429006e-05   3.497863e-01   1.226376e-05  
 9.962291e-08   1.285135e+00   2.377607e-05   3.497673e-01   1.200666e-05  
 9.968086e-08   1.285883e+00   2.327470e-05   3.497485e-01   1.175587e-05  
 9.973880e-08   1.286630e+00   2.278565e-05   3.497297e-01   1.151124e-05  
 9.979674e-08   1.287378e+00   2.230861e-05   3.497111e-01   1.127262e-05  
 9.985468e-08   1.288125e+00   2.184329e-05   3.496926e-01   1.103987e-05  
 9.992734e-08   1.289062e+00   2.127586e-05   3.496696e-01   1.075604e-05  
 1.000000e-07   1.290000e+00   2.072583e-05   3.496468e-01   1.048092e-05  
