
time (s)       getData("/nvtc getData("/SNMh getData("/SNMr getData("/SNMw

 0.000000e+00   0.000000e+00   5.097419e-01   5.097430e-01   1.975846e-01  
 2.009760e-11   1.024977e-04   5.097430e-01   5.097441e-01   1.973881e-01  
 3.536656e-11   1.803694e-04   5.097425e-01   5.097437e-01   1.972261e-01  
 5.662803e-11   2.888029e-04   5.097418e-01   5.097430e-01   1.969992e-01  
 9.915097e-11   5.056699e-04   5.097404e-01   5.097415e-01   1.965457e-01  
 1.841968e-10   9.394039e-04   5.097375e-01   5.097387e-01   1.956409e-01  
 3.542886e-10   1.806871e-03   5.097316e-01   5.097328e-01   1.938408e-01  
 6.944721e-10   3.541807e-03   5.097195e-01   5.097207e-01   1.902821e-01  
 1.312382e-09   6.693153e-03   5.096960e-01   5.096974e-01   1.839843e-01  
 2.029919e-09   1.035259e-02   5.096663e-01   5.096678e-01   1.769940e-01  
 2.754443e-09   1.404766e-02   5.096333e-01   5.096350e-01   1.703490e-01  
 3.473994e-09   1.771737e-02   5.095974e-01   5.095993e-01   1.642038e-01  
 4.179322e-09   2.131454e-02   5.095589e-01   5.095609e-01   1.586358e-01  
 4.873254e-09   2.485359e-02   5.095173e-01   5.095196e-01   1.535901e-01  
 5.568446e-09   2.839907e-02   5.094719e-01   5.094743e-01   1.489395e-01  
 6.277597e-09   3.201574e-02   5.094211e-01   5.094238e-01   1.445738e-01  
 7.012710e-09   3.576482e-02   5.093634e-01   5.093664e-01   1.404041e-01  
 7.786131e-09   3.970926e-02   5.092966e-01   5.092999e-01   1.363545e-01  
 8.610414e-09   4.391311e-02   5.092177e-01   5.092214e-01   1.323607e-01  
 9.498563e-09   4.844267e-02   5.091229e-01   5.091271e-01   1.283672e-01  
 1.046456e-08   5.336927e-02   5.090070e-01   5.090118e-01   1.243231e-01  
 1.146456e-08   5.846927e-02   5.088712e-01   5.088766e-01   1.204045e-01  
 1.246456e-08   6.356927e-02   5.087173e-01   5.087235e-01   1.167075e-01  
 1.346456e-08   6.866927e-02   5.085429e-01   5.085500e-01   1.131925e-01  
 1.446456e-08   7.376927e-02   5.083455e-01   5.083537e-01   1.098283e-01  
 1.546456e-08   7.886927e-02   5.081224e-01   5.081317e-01   1.065906e-01  
 1.646456e-08   8.396927e-02   5.078703e-01   5.078810e-01   1.034599e-01  
 1.746456e-08   8.906927e-02   5.075859e-01   5.075982e-01   1.004204e-01  
 1.846456e-08   9.416927e-02   5.072655e-01   5.072795e-01   9.745947e-02  
 1.946456e-08   9.926927e-02   5.069048e-01   5.069209e-01   9.456641e-02  
 2.046456e-08   1.043692e-01   5.064996e-01   5.065180e-01   9.173240e-02  
 2.146456e-08   1.094692e-01   5.060449e-01   5.060661e-01   8.894991e-02  
 2.246456e-08   1.145692e-01   5.055357e-01   5.055599e-01   8.621247e-02  
 2.346456e-08   1.196692e-01   5.049663e-01   5.049940e-01   8.351446e-02  
 2.446456e-08   1.247692e-01   5.043307e-01   5.043625e-01   8.085094e-02  
 2.546456e-08   1.298692e-01   5.036227e-01   5.036591e-01   7.821749e-02  
 2.646456e-08   1.349692e-01   5.028354e-01   5.028771e-01   7.561022e-02  
 2.746456e-08   1.400692e-01   5.019616e-01   5.020093e-01   7.302559e-02  
 2.846456e-08   1.451692e-01   5.009935e-01   5.010481e-01   7.046046e-02  
 2.946456e-08   1.502692e-01   4.999228e-01   4.999853e-01   6.791204e-02  
 3.046456e-08   1.553692e-01   4.987405e-01   4.988119e-01   6.537789e-02  
 3.146456e-08   1.604692e-01   4.974366e-01   4.975182e-01   6.285595e-02  
 3.246456e-08   1.655692e-01   4.960001e-01   4.960934e-01   6.034458e-02  
 3.346456e-08   1.706692e-01   4.944186e-01   4.945250e-01   5.784265e-02  
 3.446456e-08   1.757692e-01   4.926776e-01   4.927991e-01   5.534963e-02  
 3.546456e-08   1.808692e-01   4.907599e-01   4.908986e-01   5.286577e-02  
 3.646456e-08   1.859692e-01   4.886441e-01   4.888029e-01   5.039227e-02  
 3.746456e-08   1.910692e-01   4.863031e-01   4.864856e-01   4.793163e-02  
 3.846456e-08   1.961692e-01   4.837004e-01   4.839116e-01   4.548803e-02  
 3.946456e-08   2.012692e-01   4.807845e-01   4.810318e-01   4.306774e-02  
 4.046456e-08   2.063692e-01   4.774784e-01   4.777733e-01   4.067967e-02  
 4.146456e-08   2.114692e-01   4.736579e-01   4.740203e-01   3.833570e-02  
 4.246456e-08   2.165692e-01   4.691044e-01   4.695720e-01   3.605045e-02  
 4.346456e-08   2.216692e-01   4.633869e-01   4.640432e-01   3.384040e-02  
 4.429221e-08   2.258903e-01   4.571049e-01   4.580768e-01   3.207971e-02  
 4.469634e-08   2.279513e-01   4.531519e-01   4.544038e-01   3.124521e-02  
 4.503826e-08   2.296951e-01   4.491170e-01   4.507285e-01   3.055283e-02  
 4.539953e-08   2.315376e-01   4.438863e-01   4.460860e-01   2.983531e-02  
 4.568492e-08   2.329930e-01   4.388119e-01   4.417175e-01   2.927892e-02  
 4.591247e-08   2.341536e-01   4.340240e-01   4.377122e-01   2.884193e-02  
 4.614341e-08   2.353314e-01   4.283992e-01   4.331380e-01   2.840455e-02  
 4.640774e-08   2.366795e-01   4.209667e-01   4.272869e-01   2.791148e-02  
 4.667035e-08   2.380188e-01   4.125790e-01   4.209181e-01   2.742962e-02  
 4.690557e-08   2.392184e-01   4.043305e-01   4.148804e-01   2.700479e-02  
 4.709826e-08   2.402011e-01   3.971487e-01   4.098029e-01   2.666148e-02  
 4.727710e-08   2.411132e-01   3.902072e-01   4.050558e-01   2.634666e-02  
 4.747160e-08   2.421051e-01   3.824142e-01   3.999166e-01   2.600838e-02  
 4.768593e-08   2.431982e-01   3.735924e-01   3.943430e-01   2.564055e-02  
 4.791466e-08   2.443647e-01   3.639650e-01   3.885532e-01   2.525365e-02  
 4.817158e-08   2.456750e-01   3.529475e-01   3.822913e-01   2.482591e-02  
 4.848466e-08   2.472717e-01   3.393017e-01   3.750444e-01   2.431436e-02  
 4.888788e-08   2.493282e-01   3.214659e-01   3.663447e-01   2.367080e-02  
 4.933434e-08   2.516051e-01   3.014814e-01   3.575029e-01   2.297776e-02  
 4.980539e-08   2.540075e-01   2.802252e-01   3.489791e-01   2.226799e-02  
 5.031167e-08   2.565895e-01   2.572797e-01   3.406098e-01   2.152877e-02  
 5.085937e-08   2.593828e-01   2.324423e-01   3.323304e-01   2.075541e-02  
 5.145434e-08   2.624171e-01   2.055676e-01   3.240883e-01   1.994484e-02  
 5.210604e-08   2.657408e-01   1.764292e-01   3.157929e-01   1.909042e-02  
 5.282453e-08   2.694051e-01   1.449617e-01   3.073657e-01   1.818666e-02  
 5.362008e-08   2.734624e-01   1.116431e-01   2.987424e-01   1.722991e-02  
 5.404212e-08   2.756148e-01   9.523724e-02   2.944199e-01   1.674012e-02  
 5.440853e-08   2.774835e-01   8.232706e-02   2.907903e-01   1.632445e-02  
 5.471852e-08   2.790644e-01   7.284763e-02   2.878015e-01   1.597955e-02  
 5.497291e-08   2.803618e-01   6.627798e-02   2.854008e-01   1.570103e-02  
 5.523379e-08   2.816923e-01   6.069227e-02   2.829848e-01   1.541955e-02  
 5.549287e-08   2.830136e-01   5.616882e-02   2.806287e-01   1.514408e-02  
 5.574062e-08   2.842771e-01   5.261834e-02   2.784141e-01   1.488440e-02  
 5.597473e-08   2.854711e-01   4.980597e-02   2.763541e-01   1.464230e-02  
 5.622024e-08   2.867232e-01   4.729222e-02   2.742263e-01   1.439180e-02  
 5.649956e-08   2.881477e-01   4.484587e-02   2.718441e-01   1.411095e-02  
 5.681875e-08   2.897756e-01   4.245509e-02   2.691696e-01   1.379531e-02  
 5.718274e-08   2.916320e-01   4.011770e-02   2.661783e-01   1.344213e-02  
 5.761234e-08   2.938229e-01   3.774738e-02   2.627231e-01   1.303437e-02  
 5.813657e-08   2.964965e-01   3.526362e-02   2.586095e-01   1.254972e-02  
 5.878404e-08   2.997986e-01   3.263409e-02   2.536725e-01   1.197023e-02  
 5.959153e-08   3.039168e-01   2.982719e-02   2.477171e-01   1.127601e-02  
 6.058267e-08   3.089716e-01   2.687957e-02   2.406820e-01   1.046543e-02  
 6.158267e-08   3.140716e-01   2.430259e-02   2.338580e-01   9.692006e-03  
 6.258267e-08   3.191716e-01   2.202394e-02   2.272807e-01   8.961271e-03  
 6.358267e-08   3.242716e-01   1.998217e-02   2.209269e-01   8.271541e-03  
 6.458267e-08   3.293716e-01   1.813679e-02   2.147778e-01   7.621293e-03  
 6.558267e-08   3.344716e-01   1.645939e-02   2.088176e-01   7.009136e-03  
 6.658267e-08   3.395716e-01   1.492905e-02   2.030333e-01   6.433778e-03  
 6.758267e-08   3.446716e-01   1.352972e-02   1.974137e-01   5.893999e-03  
 6.858267e-08   3.497716e-01   1.224863e-02   1.919495e-01   5.388626e-03  
 6.958267e-08   3.548716e-01   1.107529e-02   1.866328e-01   4.916510e-03  
 7.058267e-08   3.599716e-01   1.000084e-02   1.814567e-01   4.476505e-03  
 7.158267e-08   3.650716e-01   9.017612e-03   1.764157e-01   4.067455e-03  
 7.258267e-08   3.701716e-01   8.118818e-03   1.715051e-01   3.688181e-03  
 7.358267e-08   3.752716e-01   7.298335e-03   1.667216e-01   3.337472e-03  
 7.458267e-08   3.803716e-01   6.550549e-03   1.620628e-01   3.014079e-03  
 7.558267e-08   3.854716e-01   5.870249e-03   1.575276e-01   2.716719e-03  
 7.658267e-08   3.905716e-01   5.252544e-03   1.531166e-01   2.444074e-03  
 7.758267e-08   3.956716e-01   4.692816e-03   1.488322e-01   2.194796e-03  
 7.858267e-08   4.007716e-01   4.186681e-03   1.446790e-01   1.967520e-03  
 7.958267e-08   4.058716e-01   3.729970e-03   1.406643e-01   1.760870e-03  
 8.058267e-08   4.109716e-01   3.318718e-03   1.367988e-01   1.573471e-03  
 8.158267e-08   4.160716e-01   2.949159e-03   1.330963e-01   1.403964e-03  
 8.258267e-08   4.211716e-01   2.617726e-03   1.295742e-01   1.251013e-03  
 8.358267e-08   4.262716e-01   2.321052e-03   1.262523e-01   1.113319e-03  
 8.458267e-08   4.313716e-01   2.055972e-03   1.231512e-01   9.896310e-04  
 8.558267e-08   4.364716e-01   1.819526e-03   1.202889e-01   8.787479e-04  
 8.658267e-08   4.415716e-01   1.608956e-03   1.176780e-01   7.795323e-04  
 8.758267e-08   4.466716e-01   1.421706e-03   1.153220e-01   6.909113e-04  
 8.858267e-08   4.517716e-01   1.255421e-03   1.132150e-01   6.118803e-04  
 8.958267e-08   4.568716e-01   1.107936e-03   1.113422e-01   5.415047e-04  
 9.058267e-08   4.619716e-01   9.772743e-04   1.096832e-01   4.789201e-04  
 9.158267e-08   4.670716e-01   8.616333e-04   1.082142e-01   4.233313e-04  
 9.258267e-08   4.721716e-01   7.593805e-04   1.069114e-01   3.740100e-04  
 9.358267e-08   4.772716e-01   6.690398e-04   1.057525e-01   3.302924e-04  
 9.458267e-08   4.823716e-01   5.892815e-04   1.047172e-01   2.915758e-04  
 9.558267e-08   4.874716e-01   5.189112e-04   1.037881e-01   2.573150e-04  
 9.658267e-08   4.925716e-01   4.568589e-04   1.029502e-01   2.270182e-04  
 9.758267e-08   4.976716e-01   4.021684e-04   1.021910e-01   2.002434e-04  
 9.858267e-08   5.027716e-01   3.539872e-04   1.014999e-01   1.765940e-04  
 9.929133e-08   5.063858e-01   3.233655e-04   1.010465e-01   1.615314e-04  
 1.000000e-07   5.100000e-01   2.953859e-04   1.006200e-01   1.477449e-04  
