
time (s)       getData("/nvtc getData("/SNMh getData("/SNMr getData("/SNMw

 0.000000e+00   0.000000e+00   6.899772e-01   6.899772e-01   2.277208e-01  
 1.742578e-11   1.202379e-04   6.899793e-01   6.899793e-01   2.275359e-01  
 3.041747e-11   2.098805e-04   6.899793e-01   6.899793e-01   2.273876e-01  
 4.921262e-11   3.395670e-04   6.899792e-01   6.899792e-01   2.271723e-01  
 8.680292e-11   5.989401e-04   6.899790e-01   6.899790e-01   2.267424e-01  
 1.619835e-10   1.117686e-03   6.899786e-01   6.899786e-01   2.258874e-01  
 3.123447e-10   2.155178e-03   6.899778e-01   6.899778e-01   2.241960e-01  
 6.130671e-10   4.230163e-03   6.899762e-01   6.899762e-01   2.208897e-01  
 1.079571e-09   7.449042e-03   6.899735e-01   6.899735e-01   2.159696e-01  
 1.617797e-09   1.116280e-02   6.899699e-01   6.899699e-01   2.106177e-01  
 2.192606e-09   1.512898e-02   6.899657e-01   6.899657e-01   2.052873e-01  
 2.797111e-09   1.930007e-02   6.899606e-01   6.899606e-01   2.000965e-01  
 3.424282e-09   2.362754e-02   6.899545e-01   6.899545e-01   1.951292e-01  
 4.076247e-09   2.812610e-02   6.899473e-01   6.899473e-01   1.903708e-01  
 4.761732e-09   3.285595e-02   6.899385e-01   6.899386e-01   1.857561e-01  
 5.490924e-09   3.788738e-02   6.899277e-01   6.899277e-01   1.812183e-01  
 6.275466e-09   4.330071e-02   6.899139e-01   6.899139e-01   1.766911e-01  
 7.128864e-09   4.918916e-02   6.898961e-01   6.898961e-01   1.721079e-01  
 8.066353e-09   5.565784e-02   6.898722e-01   6.898723e-01   1.674023e-01  
 9.066353e-09   6.255784e-02   6.898410e-01   6.898410e-01   1.626849e-01  
 1.006635e-08   6.945784e-02   6.898022e-01   6.898022e-01   1.582152e-01  
 1.106635e-08   7.635784e-02   6.897541e-01   6.897542e-01   1.539438e-01  
 1.206635e-08   8.325784e-02   6.896946e-01   6.896947e-01   1.498337e-01  
 1.306635e-08   9.015784e-02   6.896211e-01   6.896212e-01   1.458566e-01  
 1.406635e-08   9.705784e-02   6.895303e-01   6.895304e-01   1.419903e-01  
 1.506635e-08   1.039578e-01   6.894183e-01   6.894185e-01   1.382178e-01  
 1.606635e-08   1.108578e-01   6.892805e-01   6.892807e-01   1.345250e-01  
 1.706635e-08   1.177578e-01   6.891113e-01   6.891115e-01   1.309008e-01  
 1.806635e-08   1.246578e-01   6.889041e-01   6.889045e-01   1.273356e-01  
 1.906635e-08   1.315578e-01   6.886514e-01   6.886518e-01   1.238214e-01  
 2.006635e-08   1.384578e-01   6.883442e-01   6.883447e-01   1.203512e-01  
 2.106635e-08   1.453578e-01   6.879727e-01   6.879733e-01   1.169185e-01  
 2.206635e-08   1.522578e-01   6.875258e-01   6.875265e-01   1.135175e-01  
 2.306635e-08   1.591578e-01   6.869914e-01   6.869924e-01   1.101424e-01  
 2.406635e-08   1.660578e-01   6.863570e-01   6.863581e-01   1.067877e-01  
 2.506635e-08   1.729578e-01   6.856093e-01   6.856107e-01   1.034479e-01  
 2.606635e-08   1.798578e-01   6.847354e-01   6.847371e-01   1.001174e-01  
 2.706635e-08   1.867578e-01   6.837225e-01   6.837246e-01   9.679059e-02  
 2.806635e-08   1.936578e-01   6.825587e-01   6.825613e-01   9.346191e-02  
 2.906635e-08   2.005578e-01   6.812329e-01   6.812360e-01   9.012598e-02  
 3.006635e-08   2.074578e-01   6.797351e-01   6.797388e-01   8.677767e-02  
 3.106635e-08   2.143578e-01   6.780559e-01   6.780603e-01   8.341237e-02  
 3.206635e-08   2.212578e-01   6.761860e-01   6.761911e-01   8.002612e-02  
 3.306635e-08   2.281578e-01   6.741155e-01   6.741215e-01   7.661587e-02  
 3.406635e-08   2.350578e-01   6.718330e-01   6.718399e-01   7.317962e-02  
 3.506635e-08   2.419578e-01   6.693236e-01   6.693317e-01   6.971656e-02  
 3.606635e-08   2.488578e-01   6.665674e-01   6.665767e-01   6.622725e-02  
 3.706635e-08   2.557578e-01   6.635355e-01   6.635464e-01   6.271382e-02  
 3.806635e-08   2.626578e-01   6.601853e-01   6.601982e-01   5.918033e-02  
 3.906635e-08   2.695578e-01   6.564499e-01   6.564655e-01   5.563338e-02  
 4.006635e-08   2.764578e-01   6.522172e-01   6.522367e-01   5.208346e-02  
 4.106635e-08   2.833578e-01   6.472802e-01   6.473058e-01   4.854713e-02  
 4.206635e-08   2.902578e-01   6.412008e-01   6.412380e-01   4.505077e-02  
 4.261041e-08   2.940118e-01   6.370594e-01   6.371087e-01   4.317921e-02  
 4.308028e-08   2.972539e-01   6.326614e-01   6.327292e-01   4.158855e-02  
 4.348830e-08   3.000692e-01   6.278186e-01   6.279168e-01   4.023200e-02  
 4.368888e-08   3.014533e-01   6.248937e-01   6.250171e-01   3.957501e-02  
 4.385743e-08   3.026163e-01   6.220502e-01   6.222038e-01   3.902854e-02  
 4.404730e-08   3.039263e-01   6.182965e-01   6.184998e-01   3.841958e-02  
 4.420243e-08   3.049967e-01   6.146811e-01   6.149442e-01   3.792751e-02  
 4.432589e-08   3.058486e-01   6.113758e-01   6.117046e-01   3.753963e-02  
 4.444424e-08   3.066652e-01   6.077984e-01   6.082107e-01   3.717100e-02  
 4.457582e-08   3.075731e-01   6.033053e-01   6.038412e-01   3.676498e-02  
 4.472708e-08   3.086168e-01   5.974356e-01   5.981665e-01   3.630337e-02  
 4.491135e-08   3.098883e-01   5.892890e-01   5.903597e-01   3.574873e-02  
 4.508123e-08   3.110604e-01   5.809129e-01   5.824314e-01   3.524511e-02  
 4.520638e-08   3.119240e-01   5.742979e-01   5.762556e-01   3.487895e-02  
 4.531198e-08   3.126526e-01   5.684733e-01   5.708925e-01   3.457325e-02  
 4.542423e-08   3.134271e-01   5.620773e-01   5.650977e-01   3.425164e-02  
 4.554663e-08   3.142717e-01   5.549000e-01   5.587306e-01   3.390486e-02  
 4.566784e-08   3.151081e-01   5.476185e-01   5.524385e-01   3.356556e-02  
 4.579054e-08   3.159547e-01   5.400992e-01   5.461407e-01   3.322625e-02  
 4.592356e-08   3.168726e-01   5.318047e-01   5.394539e-01   3.286317e-02  
 4.607047e-08   3.178862e-01   5.224976e-01   5.323016e-01   3.246794e-02  
 4.623219e-08   3.190021e-01   5.121010e-01   5.247729e-01   3.203984e-02  
 4.641718e-08   3.202785e-01   5.000440e-01   5.166584e-01   3.155907e-02  
 4.664924e-08   3.218798e-01   4.847099e-01   5.072607e-01   3.096926e-02  
 4.691674e-08   3.237255e-01   4.667964e-01   4.974678e-01   3.030742e-02  
 4.719956e-08   3.256770e-01   4.476322e-01   4.881947e-01   2.962809e-02  
 4.750252e-08   3.277674e-01   4.269008e-01   4.792982e-01   2.892280e-02  
 4.783036e-08   3.300295e-01   4.042876e-01   4.706507e-01   2.818451e-02  
 4.818829e-08   3.324992e-01   3.794517e-01   4.621305e-01   2.740640e-02  
 4.859251e-08   3.352883e-01   3.513023e-01   4.534090e-01   2.656043e-02  
 4.904871e-08   3.384361e-01   3.195177e-01   4.444506e-01   2.564427e-02  
 4.956503e-08   3.419987e-01   2.836876e-01   4.351775e-01   2.465246e-02  
 5.015327e-08   3.460575e-01   2.432997e-01   4.254682e-01   2.357516e-02  
 5.082507e-08   3.506930e-01   1.981458e-01   4.152316e-01   2.240610e-02  
 5.155957e-08   3.557610e-01   1.506826e-01   4.048416e-01   2.119430e-02  
 5.220685e-08   3.602273e-01   1.116973e-01   3.962368e-01   2.017768e-02  
 5.247810e-08   3.620989e-01   9.683382e-02   3.927612e-01   1.976478e-02  
 5.271038e-08   3.637016e-01   8.533942e-02   3.898398e-01   1.941702e-02  
 5.291799e-08   3.651341e-01   7.643861e-02   3.872693e-01   1.911060e-02  
 5.308541e-08   3.662893e-01   7.039499e-02   3.852229e-01   1.886645e-02  
 5.326268e-08   3.675124e-01   6.511171e-02   3.830808e-01   1.861073e-02  
 5.345815e-08   3.688612e-01   6.045137e-02   3.807472e-01   1.833202e-02  
 5.362214e-08   3.699928e-01   5.729343e-02   3.788114e-01   1.810077e-02  
 5.376586e-08   3.709844e-01   5.496056e-02   3.771310e-01   1.790003e-02  
 5.392091e-08   3.720542e-01   5.279506e-02   3.753343e-01   1.768541e-02  
 5.410369e-08   3.733154e-01   5.060298e-02   3.732371e-01   1.743496e-02  
 5.430669e-08   3.747162e-01   4.851411e-02   3.709335e-01   1.715998e-02  
 5.453077e-08   3.762623e-01   4.652268e-02   3.684209e-01   1.686025e-02  
 5.479528e-08   3.780874e-01   4.448429e-02   3.654940e-01   1.651147e-02  
 5.511937e-08   3.803236e-01   4.232105e-02   3.619628e-01   1.609134e-02  
 5.551468e-08   3.830513e-01   4.003663e-02   3.577331e-01   1.558928e-02  
 5.600132e-08   3.864091e-01   3.759744e-02   3.526361e-01   1.498639e-02  
 5.661751e-08   3.906608e-01   3.491461e-02   3.463437e-01   1.424598e-02  
 5.741357e-08   3.961536e-01   3.190438e-02   3.384594e-01   1.332565e-02  
 5.841357e-08   4.030536e-01   2.861698e-02   3.289095e-01   1.222425e-02  
 5.941357e-08   4.099536e-01   2.571807e-02   3.197155e-01   1.118046e-02  
 6.041357e-08   4.168536e-01   2.311022e-02   3.108447e-01   1.019148e-02  
 6.141357e-08   4.237536e-01   2.073688e-02   3.022712e-01   9.255201e-03  
 6.241357e-08   4.306536e-01   1.856223e-02   2.939747e-01   8.370109e-03  
 6.341357e-08   4.375536e-01   1.656231e-02   2.859390e-01   7.535210e-03  
 6.441357e-08   4.444536e-01   1.472054e-02   2.781514e-01   6.749956e-03  
 6.541357e-08   4.513536e-01   1.302514e-02   2.706013e-01   6.014154e-03  
 6.641357e-08   4.582536e-01   1.146757e-02   2.632803e-01   5.327862e-03  
 6.741357e-08   4.651536e-01   1.004145e-02   2.561809e-01   4.691265e-03  
 6.841357e-08   4.720536e-01   8.741720e-03   2.492963e-01   4.104535e-03  
 6.941357e-08   4.789536e-01   7.563982e-03   2.426200e-01   3.567675e-03  
 7.041357e-08   4.858536e-01   6.503984e-03   2.361453e-01   3.080377e-03  
 7.141357e-08   4.927536e-01   5.557178e-03   2.298654e-01   2.641887e-03  
 7.241357e-08   4.996536e-01   4.718418e-03   2.237732e-01   2.250913e-03  
 7.341357e-08   5.065536e-01   3.981782e-03   2.178617e-01   1.905581e-03  
 7.441357e-08   5.134536e-01   3.340536e-03   2.121241e-01   1.603447e-03  
 7.541357e-08   5.203536e-01   2.787220e-03   2.065544e-01   1.341570e-03  
 7.641357e-08   5.272536e-01   2.313837e-03   2.011479e-01   1.116617e-03  
 7.741357e-08   5.341536e-01   1.912105e-03   1.959021e-01   9.250153e-04  
 7.841357e-08   5.410536e-01   1.573729e-03   1.908168e-01   7.630899e-04  
 7.941357e-08   5.479536e-01   1.290655e-03   1.858956e-01   6.272113e-04  
 8.041357e-08   5.548536e-01   1.055281e-03   1.811469e-01   5.139066e-04  
 8.141357e-08   5.617536e-01   8.606140e-04   1.765849e-01   4.199466e-04  
 8.241357e-08   5.686536e-01   7.003540e-04   1.722305e-01   3.424005e-04  
 8.341357e-08   5.755536e-01   5.689396e-04   1.681125e-01   2.786617e-04  
 8.441357e-08   5.824536e-01   4.615366e-04   1.642661e-01   2.264526e-04  
 8.541357e-08   5.893536e-01   3.740013e-04   1.607293e-01   1.838112e-04  
 8.641357e-08   5.962536e-01   3.028223e-04   1.575355e-01   1.490676e-04  
 8.741357e-08   6.031536e-01   2.450523e-04   1.547042e-01   1.208153e-04  
 8.841357e-08   6.100536e-01   1.982372e-04   1.522349e-01   9.787883e-05  
 8.941357e-08   6.169536e-01   1.603468e-04   1.501067e-01   7.928268e-05  
 9.041357e-08   6.238536e-01   1.297100e-04   1.482838e-01   6.422177e-05  
 9.141357e-08   6.307536e-01   1.049580e-04   1.467240e-01   5.203468e-05  
 9.241357e-08   6.376536e-01   8.497298e-05   1.453855e-01   4.217996e-05  
 9.341357e-08   6.445536e-01   6.884464e-05   1.442304e-01   3.421572e-05  
 9.441357e-08   6.514536e-01   5.583372e-05   1.432268e-01   2.778220e-05  
 9.541357e-08   6.583536e-01   4.534073e-05   1.423482e-01   2.258705e-05  
 9.641357e-08   6.652536e-01   3.688024e-05   1.415732e-01   1.839310e-05  
 9.741357e-08   6.721536e-01   3.005966e-05   1.408848e-01   1.500816e-05  
 9.841357e-08   6.790536e-01   2.456179e-05   1.402693e-01   1.227667e-05  
 9.920678e-08   6.845268e-01   2.097012e-05   1.398254e-01   1.049056e-05  
 1.000000e-07   6.899999e-01   1.794330e-05   1.394158e-01   8.984175e-06  
