
time (s)       getData("/nvtc getData("/SNMh getData("/SNMr getData("/SNMw

 0.000000e+00   0.000000e+00   1.009904e+00   1.009904e+00   3.949262e-01  
 1.461709e-11   1.476326e-04   1.009907e+00   1.009907e+00   3.948149e-01  
 2.524039e-11   2.549279e-04   1.009906e+00   1.009906e+00   3.947269e-01  
 4.138512e-11   4.179897e-04   1.009906e+00   1.009906e+00   3.945926e-01  
 7.367458e-11   7.441133e-04   1.009905e+00   1.009905e+00   3.943242e-01  
 1.382535e-10   1.396360e-03   1.009903e+00   1.009903e+00   3.937881e-01  
 2.674113e-10   2.700854e-03   1.009899e+00   1.009899e+00   3.927191e-01  
 4.922153e-10   4.971374e-03   1.009893e+00   1.009893e+00   3.908688e-01  
 7.649279e-10   7.725772e-03   1.009884e+00   1.009884e+00   3.886422e-01  
 1.076330e-09   1.087093e-02   1.009872e+00   1.009872e+00   3.861247e-01  
 1.433030e-09   1.447360e-02   1.009858e+00   1.009858e+00   3.832745e-01  
 1.835355e-09   1.853709e-02   1.009841e+00   1.009841e+00   3.801034e-01  
 2.288774e-09   2.311662e-02   1.009818e+00   1.009818e+00   3.765856e-01  
 2.805648e-09   2.833704e-02   1.009788e+00   1.009789e+00   3.726477e-01  
 3.403252e-09   3.437284e-02   1.009748e+00   1.009749e+00   3.681890e-01  
 4.107690e-09   4.148767e-02   1.009692e+00   1.009692e+00   3.630584e-01  
 4.961807e-09   5.011425e-02   1.009606e+00   1.009606e+00   3.570088e-01  
 5.961807e-09   6.021425e-02   1.009476e+00   1.009476e+00   3.501430e-01  
 6.961807e-09   7.031425e-02   1.009304e+00   1.009304e+00   3.434839e-01  
 7.961807e-09   8.041425e-02   1.009078e+00   1.009078e+00   3.370025e-01  
 8.961807e-09   9.051425e-02   1.008783e+00   1.008784e+00   3.306705e-01  
 9.961807e-09   1.006142e-01   1.008400e+00   1.008401e+00   3.244615e-01  
 1.096180e-08   1.107142e-01   1.007906e+00   1.007908e+00   3.183503e-01  
 1.196180e-08   1.208142e-01   1.007277e+00   1.007279e+00   3.123134e-01  
 1.296180e-08   1.309142e-01   1.006485e+00   1.006487e+00   3.063278e-01  
 1.396180e-08   1.410142e-01   1.005500e+00   1.005503e+00   3.003711e-01  
 1.496180e-08   1.511142e-01   1.004296e+00   1.004300e+00   2.944210e-01  
 1.596180e-08   1.612142e-01   1.002850e+00   1.002855e+00   2.884553e-01  
 1.696180e-08   1.713142e-01   1.001144e+00   1.001150e+00   2.824519e-01  
 1.796180e-08   1.814142e-01   9.991702e-01   9.991773e-01   2.763898e-01  
 1.896180e-08   1.915142e-01   9.969258e-01   9.969345e-01   2.702495e-01  
 1.996180e-08   2.016142e-01   9.944179e-01   9.944282e-01   2.640143e-01  
 2.096180e-08   2.117142e-01   9.916579e-01   9.916700e-01   2.576711e-01  
 2.196180e-08   2.218142e-01   9.886600e-01   9.886742e-01   2.512110e-01  
 2.296180e-08   2.319142e-01   9.854390e-01   9.854554e-01   2.446290e-01  
 2.396180e-08   2.420142e-01   9.820078e-01   9.820266e-01   2.379238e-01  
 2.496180e-08   2.521142e-01   9.783764e-01   9.783979e-01   2.310968e-01  
 2.596180e-08   2.622142e-01   9.745513e-01   9.745761e-01   2.241513e-01  
 2.696180e-08   2.723142e-01   9.705356e-01   9.705642e-01   2.170919e-01  
 2.796180e-08   2.824142e-01   9.663289e-01   9.663620e-01   2.099238e-01  
 2.896180e-08   2.925142e-01   9.619282e-01   9.619667e-01   2.026526e-01  
 2.996180e-08   3.026142e-01   9.573280e-01   9.573732e-01   1.952843e-01  
 3.096180e-08   3.127142e-01   9.525208e-01   9.525741e-01   1.878255e-01  
 3.196180e-08   3.228142e-01   9.474970e-01   9.475603e-01   1.802831e-01  
 3.296180e-08   3.329142e-01   9.422447e-01   9.423205e-01   1.726649e-01  
 3.396180e-08   3.430142e-01   9.367489e-01   9.368405e-01   1.649798e-01  
 3.496180e-08   3.531142e-01   9.309905e-01   9.311022e-01   1.572376e-01  
 3.596180e-08   3.632142e-01   9.249434e-01   9.250814e-01   1.494501e-01  
 3.696180e-08   3.733142e-01   9.185717e-01   9.187442e-01   1.416313e-01  
 3.796180e-08   3.834142e-01   9.118221e-01   9.120415e-01   1.337989e-01  
 3.896180e-08   3.935142e-01   9.046122e-01   9.048970e-01   1.259769e-01  
 3.996180e-08   4.036142e-01   8.968047e-01   8.971855e-01   1.182010e-01  
 4.096180e-08   4.137142e-01   8.881509e-01   8.886836e-01   1.105295e-01  
 4.196180e-08   4.238142e-01   8.781446e-01   8.789490e-01   1.030648e-01  
 4.282950e-08   4.325780e-01   8.674392e-01   8.687384e-01   9.688991e-02  
 4.323823e-08   4.367061e-01   8.612257e-01   8.629644e-01   9.412617e-02  
 4.358759e-08   4.402346e-01   8.549031e-01   8.572565e-01   9.185644e-02  
 4.390989e-08   4.434899e-01   8.478466e-01   8.511300e-01   8.984702e-02  
 4.416920e-08   4.461089e-01   8.409486e-01   8.454277e-01   8.829305e-02  
 4.437219e-08   4.481591e-01   8.345358e-01   8.403953e-01   8.711687e-02  
 4.456006e-08   4.500566e-01   8.276282e-01   8.352596e-01   8.606007e-02  
 4.477236e-08   4.522008e-01   8.185287e-01   8.289148e-01   8.490236e-02  
 4.501734e-08   4.546752e-01   8.061983e-01   8.209862e-01   8.361363e-02  
 4.526289e-08   4.571552e-01   7.919164e-01   8.126053e-01   8.237100e-02  
 4.545741e-08   4.591198e-01   7.793724e-01   8.058321e-01   8.141991e-02  
 4.561923e-08   4.607542e-01   7.682155e-01   8.001996e-01   8.065007e-02  
 4.578924e-08   4.624713e-01   7.558788e-01   7.943430e-01   7.986122e-02  
 4.599194e-08   4.645186e-01   7.404522e-01   7.874943e-01   7.894595e-02  
 4.621271e-08   4.667484e-01   7.228873e-01   7.802421e-01   7.797855e-02  
 4.645473e-08   4.691927e-01   7.028515e-01   7.725608e-01   7.695078e-02  
 4.674769e-08   4.721517e-01   6.776776e-01   7.636358e-01   7.574857e-02  
 4.711442e-08   4.758557e-01   6.450043e-01   7.529992e-01   7.430182e-02  
 4.753255e-08   4.800787e-01   6.065350e-01   7.415126e-01   7.272168e-02  
 4.800918e-08   4.848928e-01   5.615797e-01   7.291252e-01   7.099798e-02  
 4.852447e-08   4.900971e-01   5.122486e-01   7.164412e-01   6.921361e-02  
 4.904471e-08   4.953515e-01   4.623065e-01   7.042587e-01   6.748280e-02  
 4.955753e-08   5.005310e-01   4.135611e-01   6.927687e-01   6.583606e-02  
 5.006539e-08   5.056605e-01   3.663606e-01   6.818263e-01   6.425554e-02  
 5.056850e-08   5.107419e-01   3.212447e-01   6.713605e-01   6.273312e-02  
 5.106259e-08   5.157321e-01   2.791163e-01   6.614028e-01   6.127525e-02  
 5.154230e-08   5.205773e-01   2.408901e-01   6.520063e-01   5.989159e-02  
 5.198850e-08   5.250839e-01   2.083856e-01   6.434836e-01   5.863025e-02  
 5.237841e-08   5.290219e-01   1.831942e-01   6.361933e-01   5.754674e-02  
 5.268466e-08   5.321151e-01   1.662392e-01   6.305627e-01   5.670718e-02  
 5.292191e-08   5.345113e-01   1.552158e-01   6.262557e-01   5.606343e-02  
 5.314767e-08   5.367914e-01   1.465330e-01   6.221996e-01   5.545603e-02  
 5.339527e-08   5.392922e-01   1.388581e-01   6.177967e-01   5.479546e-02  
 5.361747e-08   5.415364e-01   1.333126e-01   6.138849e-01   5.420756e-02  
 5.380432e-08   5.434236e-01   1.294080e-01   6.106231e-01   5.371662e-02  
 5.399011e-08   5.453002e-01   1.260518e-01   6.074041e-01   5.323152e-02  
 5.420386e-08   5.474590e-01   1.226900e-01   6.037301e-01   5.267714e-02  
 5.444748e-08   5.499195e-01   1.193520e-01   5.995797e-01   5.205000e-02  
 5.471461e-08   5.526176e-01   1.161414e-01   5.950724e-01   5.136793e-02  
 5.502142e-08   5.557163e-01   1.128802e-01   5.899503e-01   5.059166e-02  
 5.539364e-08   5.594758e-01   1.093674e-01   5.838111e-01   4.965972e-02  
 5.584945e-08   5.640795e-01   1.055373e-01   5.764006e-01   4.853278e-02  
 5.640850e-08   5.697259e-01   1.013340e-01   5.674644e-01   4.717128e-02  
 5.711017e-08   5.768127e-01   9.658720e-02   5.564729e-01   4.549348e-02  
 5.801317e-08   5.859330e-01   9.106477e-02   5.426710e-01   4.338300e-02  
 5.901317e-08   5.960330e-01   8.547855e-02   5.278064e-01   4.110716e-02  
 6.001317e-08   6.061330e-01   8.029122e-02   5.133542e-01   3.889341e-02  
 6.101317e-08   6.162330e-01   7.540937e-02   4.992916e-01   3.673987e-02  
 6.201317e-08   6.263330e-01   7.077652e-02   4.856010e-01   3.464514e-02  
 6.301317e-08   6.364330e-01   6.635594e-02   4.722695e-01   3.260813e-02  
 6.401317e-08   6.465330e-01   6.212254e-02   4.592872e-01   3.062799e-02  
 6.501317e-08   6.566330e-01   5.805841e-02   4.466476e-01   2.870403e-02  
 6.601317e-08   6.667330e-01   5.415037e-02   4.343463e-01   2.683568e-02  
 6.701317e-08   6.768330e-01   5.038835e-02   4.223808e-01   2.502241e-02  
 6.801317e-08   6.869330e-01   4.676448e-02   4.107509e-01   2.326374e-02  
 6.901317e-08   6.970330e-01   4.327248e-02   3.994578e-01   2.155923e-02  
 7.001317e-08   7.071330e-01   3.990729e-02   3.885050e-01   1.990851e-02  
 7.101317e-08   7.172330e-01   3.666487e-02   3.778982e-01   1.831130e-02  
 7.201317e-08   7.273330e-01   3.354227e-02   3.676457e-01   1.676755e-02  
 7.301317e-08   7.374330e-01   3.053760e-02   3.577596e-01   1.527750e-02  
 7.401317e-08   7.475330e-01   2.765032e-02   3.482566e-01   1.384188e-02  
 7.501317e-08   7.576330e-01   2.488139e-02   3.391593e-01   1.246202e-02  
 7.601317e-08   7.677330e-01   2.223363e-02   3.304982e-01   1.114007e-02  
 7.701317e-08   7.778330e-01   1.971186e-02   3.223129e-01   9.879072e-03  
 7.801317e-08   7.879330e-01   1.732302e-02   3.146539e-01   8.683060e-03  
 7.901317e-08   7.980330e-01   1.507599e-02   3.075809e-01   7.556984e-03  
 8.001317e-08   8.081330e-01   1.298112e-02   3.011578e-01   6.506464e-03  
 8.101317e-08   8.182330e-01   1.104941e-02   2.954404e-01   5.537363e-03  
 8.201317e-08   8.283330e-01   9.291186e-03   2.904593e-01   4.655150e-03  
 8.301317e-08   8.384330e-01   7.714649e-03   2.862060e-01   3.864143e-03  
 8.401317e-08   8.485330e-01   6.324342e-03   2.826311e-01   3.166739e-03  
 8.501317e-08   8.586330e-01   5.119916e-03   2.796555e-01   2.562803e-03  
 8.601317e-08   8.687330e-01   4.095517e-03   2.771883e-01   2.049381e-03  
 8.701317e-08   8.788330e-01   3.239991e-03   2.751409e-01   1.620815e-03  
 8.801317e-08   8.889330e-01   2.537849e-03   2.734348e-01   1.269264e-03  
 8.901317e-08   8.990330e-01   1.970773e-03   2.720040e-01   9.854720e-04  
 9.001317e-08   9.091330e-01   1.519280e-03   2.707951e-01   7.596137e-04  
 9.101317e-08   9.192330e-01   1.164216e-03   2.697654e-01   5.820511e-04  
 9.201317e-08   9.293330e-01   8.878600e-04   2.688811e-01   4.438825e-04  
 9.301317e-08   9.394330e-01   6.745798e-04   2.681157e-01   3.372676e-04  
 9.401317e-08   9.495330e-01   5.110976e-04   2.674481e-01   2.555542e-04  
 9.501317e-08   9.596330e-01   3.864604e-04   2.668616e-01   1.932594e-04  
 9.601317e-08   9.697330e-01   2.918377e-04   2.663432e-01   1.459664e-04  
 9.701317e-08   9.798330e-01   2.202354e-04   2.658821e-01   1.101780e-04  
 9.801317e-08   9.899330e-01   1.661882e-04   2.654700e-01   8.316278e-05  
 9.900071e-08   9.999072e-01   1.259093e-04   2.651044e-01   6.302819e-05  
 9.950035e-08   1.004953e+00   1.094556e-04   2.649332e-01   5.480287e-05  
 1.000000e-07   1.010000e+00   9.518738e-05   2.647706e-01   4.766979e-05  
