
time (s)       getData("/nvtc getData("/SNMh getData("/SNMr getData("/SNMw

 0.000000e+00   0.000000e+00   1.169982e+00   1.169982e+00   4.496228e-01  
 1.367923e-11   1.600470e-04   1.169986e+00   1.169986e+00   4.494902e-01  
 2.351500e-11   2.751255e-04   1.169986e+00   1.169986e+00   4.493877e-01  
 3.875307e-11   4.534109e-04   1.169986e+00   1.169986e+00   4.492283e-01  
 6.922920e-11   8.099817e-04   1.169985e+00   1.169985e+00   4.489096e-01  
 1.301814e-10   1.523123e-03   1.169985e+00   1.169985e+00   4.482732e-01  
 1.920375e-10   2.246839e-03   1.169985e+00   1.169985e+00   4.476287e-01  
 2.597637e-10   3.039236e-03   1.169984e+00   1.169984e+00   4.469246e-01  
 3.288387e-10   3.847413e-03   1.169984e+00   1.169984e+00   4.462081e-01  
 4.005402e-10   4.686320e-03   1.169983e+00   1.169983e+00   4.454662e-01  
 4.742709e-10   5.548969e-03   1.169982e+00   1.169982e+00   4.447052e-01  
 5.503969e-10   6.439644e-03   1.169982e+00   1.169982e+00   4.439217e-01  
 6.289484e-10   7.358697e-03   1.169981e+00   1.169981e+00   4.431154e-01  
 7.101306e-10   8.308528e-03   1.169980e+00   1.169980e+00   4.422845e-01  
 7.941024e-10   9.290999e-03   1.169980e+00   1.169980e+00   4.414278e-01  
 8.810696e-10   1.030851e-02   1.169979e+00   1.169979e+00   4.405433e-01  
 9.712481e-10   1.136360e-02   1.169978e+00   1.169978e+00   4.396294e-01  
 1.064883e-09   1.245914e-02   1.169977e+00   1.169977e+00   4.386838e-01  
 1.162249e-09   1.359832e-02   1.169976e+00   1.169976e+00   4.377042e-01  
 1.263652e-09   1.478473e-02   1.169975e+00   1.169975e+00   4.366882e-01  
 1.356209e-09   1.586765e-02   1.169974e+00   1.169974e+00   4.357644e-01  
 1.467868e-09   1.717406e-02   1.169973e+00   1.169973e+00   4.346547e-01  
 1.569423e-09   1.836225e-02   1.169971e+00   1.169971e+00   4.336499e-01  
 1.669196e-09   1.952959e-02   1.169970e+00   1.169970e+00   4.326670e-01  
 1.795208e-09   2.100393e-02   1.169968e+00   1.169968e+00   4.314317e-01  
 1.909338e-09   2.233926e-02   1.169967e+00   1.169967e+00   4.303186e-01  
 2.022361e-09   2.366162e-02   1.169965e+00   1.169965e+00   4.292219e-01  
 2.142438e-09   2.506653e-02   1.169963e+00   1.169963e+00   4.280628e-01  
 2.267147e-09   2.652562e-02   1.169961e+00   1.169961e+00   4.268655e-01  
 2.396840e-09   2.804303e-02   1.169959e+00   1.169959e+00   4.256277e-01  
 2.533158e-09   2.963795e-02   1.169957e+00   1.169957e+00   4.243345e-01  
 2.676720e-09   3.131762e-02   1.169954e+00   1.169954e+00   4.229814e-01  
 2.828193e-09   3.308986e-02   1.169951e+00   1.169951e+00   4.215636e-01  
 2.988582e-09   3.496641e-02   1.169948e+00   1.169948e+00   4.200733e-01  
 3.158970e-09   3.695995e-02   1.169944e+00   1.169944e+00   4.185025e-01  
 3.340597e-09   3.908498e-02   1.169940e+00   1.169940e+00   4.168420e-01  
 3.534960e-09   4.135903e-02   1.169935e+00   1.169935e+00   4.150810e-01  
 3.743863e-09   4.380320e-02   1.169929e+00   1.169929e+00   4.132065e-01  
 3.969495e-09   4.644310e-02   1.169922e+00   1.169922e+00   4.112028e-01  
 4.214555e-09   4.931030e-02   1.169914e+00   1.169914e+00   4.090511e-01  
 4.482420e-09   5.244432e-02   1.169904e+00   1.169904e+00   4.067276e-01  
 4.777381e-09   5.589536e-02   1.169892e+00   1.169892e+00   4.042031e-01  
 5.104992e-09   5.972840e-02   1.169877e+00   1.169877e+00   4.014396e-01  
 5.472595e-09   6.402936e-02   1.169858e+00   1.169858e+00   3.983881e-01  
 5.890145e-09   6.891470e-02   1.169832e+00   1.169832e+00   3.949828e-01  
 6.371543e-09   7.454705e-02   1.169797e+00   1.169797e+00   3.911331e-01  
 6.936900e-09   8.116173e-02   1.169746e+00   1.169746e+00   3.867100e-01  
 7.616623e-09   8.911449e-02   1.169669e+00   1.169669e+00   3.815215e-01  
 8.459288e-09   9.897367e-02   1.169541e+00   1.169541e+00   3.752654e-01  
 9.459288e-09   1.106736e-01   1.169327e+00   1.169327e+00   3.680609e-01  
 1.045928e-08   1.223736e-01   1.169018e+00   1.169018e+00   3.610565e-01  
 1.145928e-08   1.340736e-01   1.168579e+00   1.168579e+00   3.542141e-01  
 1.245928e-08   1.457736e-01   1.167963e+00   1.167963e+00   3.474977e-01  
 1.345928e-08   1.574736e-01   1.167118e+00   1.167118e+00   3.408721e-01  
 1.445928e-08   1.691736e-01   1.165988e+00   1.165988e+00   3.343015e-01  
 1.545928e-08   1.808736e-01   1.164523e+00   1.164524e+00   3.277487e-01  
 1.645928e-08   1.925736e-01   1.162690e+00   1.162690e+00   3.211746e-01  
 1.745928e-08   2.042736e-01   1.160475e+00   1.160475e+00   3.145392e-01  
 1.845928e-08   2.159736e-01   1.157890e+00   1.157891e+00   3.078039e-01  
 1.945928e-08   2.276736e-01   1.154968e+00   1.154969e+00   3.009358e-01  
 2.045928e-08   2.393736e-01   1.151748e+00   1.151749e+00   2.939106e-01  
 2.145928e-08   2.510736e-01   1.148268e+00   1.148269e+00   2.867150e-01  
 2.245928e-08   2.627736e-01   1.144559e+00   1.144561e+00   2.793451e-01  
 2.345928e-08   2.744736e-01   1.140639e+00   1.140642e+00   2.718036e-01  
 2.445928e-08   2.861736e-01   1.136518e+00   1.136521e+00   2.640967e-01  
 2.545928e-08   2.978736e-01   1.132194e+00   1.132197e+00   2.562313e-01  
 2.645928e-08   3.095736e-01   1.127662e+00   1.127666e+00   2.482143e-01  
 2.745928e-08   3.212736e-01   1.122914e+00   1.122919e+00   2.400526e-01  
 2.845928e-08   3.329736e-01   1.117941e+00   1.117946e+00   2.317533e-01  
 2.945928e-08   3.446736e-01   1.112734e+00   1.112741e+00   2.233245e-01  
 3.045928e-08   3.563736e-01   1.107286e+00   1.107295e+00   2.147753e-01  
 3.145928e-08   3.680736e-01   1.101591e+00   1.101602e+00   2.061162e-01  
 3.245928e-08   3.797736e-01   1.095641e+00   1.095654e+00   1.973592e-01  
 3.345928e-08   3.914736e-01   1.089426e+00   1.089443e+00   1.885174e-01  
 3.445928e-08   4.031736e-01   1.082936e+00   1.082958e+00   1.796056e-01  
 3.545928e-08   4.148736e-01   1.076153e+00   1.076181e+00   1.706399e-01  
 3.645928e-08   4.265736e-01   1.069050e+00   1.069087e+00   1.616382e-01  
 3.745928e-08   4.382736e-01   1.061584e+00   1.061634e+00   1.526213e-01  
 3.845928e-08   4.499736e-01   1.053685e+00   1.053754e+00   1.436140e-01  
 3.945928e-08   4.616736e-01   1.045234e+00   1.045332e+00   1.346500e-01  
 4.045928e-08   4.733736e-01   1.036005e+00   1.036153e+00   1.257803e-01  
 4.145928e-08   4.850736e-01   1.025534e+00   1.025774e+00   1.170949e-01  
 4.245928e-08   4.967736e-01   1.012637e+00   1.013099e+00   1.087687e-01  
 4.345928e-08   5.084736e-01   9.934979e-01   9.948377e-01   1.011147e-01  
 4.390621e-08   5.137027e-01   9.798084e-01   9.825851e-01   9.801262e-02  
 4.433172e-08   5.186811e-01   9.608643e-01   9.672377e-01   9.527224e-02  
 4.469113e-08   5.228862e-01   9.392656e-01   9.520715e-01   9.312033e-02  
 4.497557e-08   5.262141e-01   9.187843e-01   9.396906e-01   9.151790e-02  
 4.525001e-08   5.294251e-01   8.966886e-01   9.280744e-01   9.004980e-02  
 4.553840e-08   5.327992e-01   8.714456e-01   9.164878e-01   8.858234e-02  
 4.584268e-08   5.363594e-01   8.429390e-01   9.049867e-01   8.710884e-02  
 4.616893e-08   5.401764e-01   8.105824e-01   8.934013e-01   8.560421e-02  
 4.652235e-08   5.443115e-01   7.737828e-01   8.815867e-01   8.405027e-02  
 4.690709e-08   5.488130e-01   7.320513e-01   8.694449e-01   8.243543e-02  
 4.733124e-08   5.537756e-01   6.845137e-01   8.567748e-01   8.073340e-02  
 4.781117e-08   5.593907e-01   6.294487e-01   8.431838e-01   7.888992e-02  
 4.838424e-08   5.660956e-01   5.629436e-01   8.278059e-01   7.678258e-02  
 4.911047e-08   5.745925e-01   4.793701e-01   8.093965e-01   7.423003e-02  
 4.984954e-08   5.832397e-01   3.975379e-01   7.916577e-01   7.174031e-02  
 5.050366e-08   5.908928e-01   3.298723e-01   7.766413e-01   6.961055e-02  
 5.103995e-08   5.971674e-01   2.789934e-01   7.647332e-01   6.790813e-02  
 5.150049e-08   6.025558e-01   2.394191e-01   7.547610e-01   6.647388e-02  
 5.191031e-08   6.073506e-01   2.081371e-01   7.460648e-01   6.521720e-02  
 5.227529e-08   6.116209e-01   1.842973e-01   7.384488e-01   6.411237e-02  
 5.259648e-08   6.153788e-01   1.673752e-01   7.318404e-01   6.315067e-02  
 5.287904e-08   6.186848e-01   1.559862e-01   7.260949e-01   6.231239e-02  
 5.314062e-08   6.217452e-01   1.479912e-01   7.208301e-01   6.154259e-02  
 5.340656e-08   6.248567e-01   1.417176e-01   7.155283e-01   6.076584e-02  
 5.369897e-08   6.282779e-01   1.362922e-01   7.097554e-01   5.991843e-02  
 5.403675e-08   6.322300e-01   1.312585e-01   7.031574e-01   5.894791e-02  
 5.444310e-08   6.369842e-01   1.263131e-01   6.953153e-01   5.779184e-02  
 5.494283e-08   6.428311e-01   1.212072e-01   6.858059e-01   5.638658e-02  
 5.557911e-08   6.502756e-01   1.156575e-01   6.739005e-01   5.462259e-02  
 5.638908e-08   6.597522e-01   1.095058e-01   6.590507e-01   5.241615e-02  
 5.738908e-08   6.714522e-01   1.027502e-01   6.411549e-01   4.974983e-02  
 5.838908e-08   6.831522e-01   9.657582e-02   6.237106e-01   4.714508e-02  
 5.938908e-08   6.948522e-01   9.080901e-02   6.066929e-01   4.460045e-02  
 6.038908e-08   7.065522e-01   8.534414e-02   5.900845e-01   4.211524e-02  
 6.138908e-08   7.182522e-01   8.012573e-02   5.738746e-01   3.968933e-02  
 6.238908e-08   7.299522e-01   7.511875e-02   5.580568e-01   3.732308e-02  
 6.338908e-08   7.416522e-01   7.030079e-02   5.426285e-01   3.501715e-02  
 6.438908e-08   7.533522e-01   6.565708e-02   5.275896e-01   3.277241e-02  
 6.538908e-08   7.650522e-01   6.117774e-02   5.129423e-01   3.058987e-02  
 6.638908e-08   7.767522e-01   5.685596e-02   4.986903e-01   2.847051e-02  
 6.738908e-08   7.884522e-01   5.268687e-02   4.848382e-01   2.641522e-02  
 6.838908e-08   8.001522e-01   4.866665e-02   4.713913e-01   2.442466e-02  
 6.938908e-08   8.118522e-01   4.479198e-02   4.583552e-01   2.249920e-02  
 7.038908e-08   8.235522e-01   4.105954e-02   4.457356e-01   2.063878e-02  
 7.138908e-08   8.352522e-01   3.746580e-02   4.335387e-01   1.884294e-02  
 7.238908e-08   8.469522e-01   3.400693e-02   4.217714e-01   1.711081e-02  
 7.338908e-08   8.586522e-01   3.067902e-02   4.104425e-01   1.544130e-02  
 7.438908e-08   8.703522e-01   2.747861e-02   3.995642e-01   1.383340e-02  
 7.538908e-08   8.820522e-01   2.440363e-02   3.891540e-01   1.228665e-02  
 7.638908e-08   8.937522e-01   2.145470e-02   3.792374e-01   1.080188e-02  
 7.738908e-08   9.054522e-01   1.863670e-02   3.698506e-01   9.382024e-03  
 7.838908e-08   9.171522e-01   1.596034e-02   3.610422e-01   8.032856e-03  
 7.938908e-08   9.288522e-01   1.344310e-02   3.528725e-01   6.763573e-03  
 8.038908e-08   9.405522e-01   1.110897e-02   3.454100e-01   5.586606e-03  
 8.138908e-08   9.522522e-01   8.986199e-03   3.387203e-01   4.516490e-03  
 8.238908e-08   9.639522e-01   7.102893e-03   3.328515e-01   3.567583e-03  
 8.338908e-08   9.756522e-01   5.480896e-03   3.278159e-01   2.750954e-03  
 8.438908e-08   9.873522e-01   4.129712e-03   3.235806e-01   2.071308e-03  
 8.538908e-08   9.990522e-01   3.042788e-03   3.200705e-01   1.525147e-03  
 8.638908e-08   1.010752e+00   2.197884e-03   3.171847e-01   1.101031e-03  
 8.738908e-08   1.022452e+00   1.561394e-03   3.148158e-01   7.818305e-04  
 8.838908e-08   1.034152e+00   1.094669e-03   3.128640e-01   5.479505e-04  
 8.938908e-08   1.045852e+00   7.598476e-04   3.112447e-01   3.802728e-04  
 9.038908e-08   1.057552e+00   5.236994e-04   3.098892e-01   2.620651e-04  
 9.138908e-08   1.069252e+00   3.592453e-04   3.087439e-01   1.797720e-04  
 9.238908e-08   1.080952e+00   2.457686e-04   3.077673e-01   1.230009e-04  
 9.338908e-08   1.092652e+00   1.679781e-04   3.069273e-01   8.408894e-05  
 9.426921e-08   1.102949e+00   1.202349e-04   3.062813e-01   6.020929e-05  
 9.492329e-08   1.110602e+00   9.388115e-05   3.058493e-01   4.702858e-05  
 9.540757e-08   1.116268e+00   7.824149e-05   3.055528e-01   3.920671e-05  
 9.578217e-08   1.120651e+00   6.800465e-05   3.053359e-01   3.408705e-05  
 9.608158e-08   1.124154e+00   6.082832e-05   3.051699e-01   3.049805e-05  
 9.632968e-08   1.127057e+00   5.548297e-05   3.050370e-01   2.782478e-05  
 9.654251e-08   1.129547e+00   5.129130e-05   3.049262e-01   2.572849e-05  
 9.672985e-08   1.131739e+00   4.787816e-05   3.048311e-01   2.402156e-05  
 9.689804e-08   1.133707e+00   4.501918e-05   3.047476e-01   2.259178e-05  
 9.705136e-08   1.135501e+00   4.257111e-05   3.046729e-01   2.136749e-05  
 9.719278e-08   1.137155e+00   4.043930e-05   3.046053e-01   2.030137e-05  
 9.732438e-08   1.138695e+00   3.855847e-05   3.045433e-01   1.936077e-05  
 9.744768e-08   1.140137e+00   3.688164e-05   3.044862e-01   1.852219e-05  
 9.756385e-08   1.141497e+00   3.537392e-05   3.044332e-01   1.776819e-05  
 9.767379e-08   1.142783e+00   3.400864e-05   3.043836e-01   1.708541e-05  
 9.777823e-08   1.144005e+00   3.276492e-05   3.043372e-01   1.646344e-05  
 9.787774e-08   1.145169e+00   3.162607e-05   3.042934e-01   1.589391e-05  
 9.797611e-08   1.146320e+00   3.054308e-05   3.042507e-01   1.535231e-05  
 9.807012e-08   1.147420e+00   2.954620e-05   3.042103e-01   1.485378e-05  
 9.816098e-08   1.148483e+00   2.861682e-05   3.041717e-01   1.438901e-05  
 9.824840e-08   1.149506e+00   2.775327e-05   3.041350e-01   1.395716e-05  
 9.833281e-08   1.150493e+00   2.694706e-05   3.040999e-01   1.355398e-05  
 9.841432e-08   1.151447e+00   2.619341e-05   3.040663e-01   1.317709e-05  
 9.849314e-08   1.152369e+00   2.548699e-05   3.040341e-01   1.282381e-05  
 9.856945e-08   1.153262e+00   2.482357e-05   3.040032e-01   1.249205e-05  
 9.864341e-08   1.154127e+00   2.419927e-05   3.039735e-01   1.217984e-05  
 9.871514e-08   1.154967e+00   2.361069e-05   3.039450e-01   1.188551e-05  
 9.878479e-08   1.155782e+00   2.305484e-05   3.039175e-01   1.160753e-05  
 9.885247e-08   1.156573e+00   2.252901e-05   3.038910e-01   1.134457e-05  
 9.891828e-08   1.157343e+00   2.203083e-05   3.038655e-01   1.109544e-05  
 9.898372e-08   1.158109e+00   2.154804e-05   3.038402e-01   1.085401e-05  
 9.904893e-08   1.158872e+00   2.107914e-05   3.038153e-01   1.061952e-05  
 9.911407e-08   1.159634e+00   2.062248e-05   3.037906e-01   1.039115e-05  
 9.917916e-08   1.160396e+00   2.017770e-05   3.037660e-01   1.016872e-05  
 9.924421e-08   1.161157e+00   1.974434e-05   3.037417e-01   9.952014e-06  
 9.930923e-08   1.161918e+00   1.932210e-05   3.037175e-01   9.740859e-06  
 9.937421e-08   1.162678e+00   1.891066e-05   3.036936e-01   9.535105e-06  
 9.943917e-08   1.163438e+00   1.850973e-05   3.036698e-01   9.334611e-06  
 9.950410e-08   1.164198e+00   1.811904e-05   3.036462e-01   9.139234e-06  
 9.956900e-08   1.164957e+00   1.773831e-05   3.036228e-01   8.948839e-06  
 9.963388e-08   1.165716e+00   1.736728e-05   3.035996e-01   8.763295e-06  
 9.969873e-08   1.166475e+00   1.700569e-05   3.035765e-01   8.582473e-06  
 9.976356e-08   1.167233e+00   1.665330e-05   3.035537e-01   8.406248e-06  
 9.982837e-08   1.167992e+00   1.630985e-05   3.035310e-01   8.234501e-06  
 9.991418e-08   1.168996e+00   1.586832e-05   3.035012e-01   8.013701e-06  
 1.000000e-07   1.170000e+00   1.544139e-05   3.034717e-01   7.800203e-06  
