
time (s)       getData("/nvtc getData("/SNMh getData("/SNMr getData("/SNMw

 0.000000e+00   0.000000e+00   3.099947e-01   3.099947e-01   5.293899e-02  
 2.553151e-11   7.914768e-05   3.099967e-01   3.099967e-01   5.272166e-02  
 4.553107e-11   1.411463e-04   3.099967e-01   3.099967e-01   5.252012e-02  
 7.174247e-11   2.224016e-04   3.099967e-01   3.099967e-01   5.224937e-02  
 1.101270e-10   3.413937e-04   3.099967e-01   3.099967e-01   5.185262e-02  
 1.823248e-10   5.652069e-04   3.099966e-01   3.099966e-01   5.111583e-02  
 3.227829e-10   1.000627e-03   3.099965e-01   3.099965e-01   4.971880e-02  
 5.032819e-10   1.560173e-03   3.099964e-01   3.099964e-01   4.799583e-02  
 7.002982e-10   2.170924e-03   3.099962e-01   3.099962e-01   4.621129e-02  
 9.085621e-10   2.816542e-03   3.099961e-01   3.099961e-01   4.443626e-02  
 1.122904e-09   3.481003e-03   3.099959e-01   3.099959e-01   4.272915e-02  
 1.340249e-09   4.154774e-03   3.099957e-01   3.099957e-01   4.111964e-02  
 1.560888e-09   4.838755e-03   3.099955e-01   3.099955e-01   3.960586e-02  
 1.786042e-09   5.536731e-03   3.099953e-01   3.099953e-01   3.817860e-02  
 2.017212e-09   6.253360e-03   3.099951e-01   3.099951e-01   3.682751e-02  
 2.256279e-09   6.994467e-03   3.099949e-01   3.099949e-01   3.554138e-02  
 2.505319e-09   7.766489e-03   3.099946e-01   3.099946e-01   3.430969e-02  
 2.766508e-09   8.576177e-03   3.099943e-01   3.099943e-01   3.312327e-02  
 3.042161e-09   9.430700e-03   3.099940e-01   3.099940e-01   3.197410e-02  
 3.334747e-09   1.033771e-02   3.099937e-01   3.099937e-01   3.085511e-02  
 3.646921e-09   1.130545e-02   3.099933e-01   3.099933e-01   2.976006e-02  
 3.981555e-09   1.234282e-02   3.099929e-01   3.099929e-01   2.868339e-02  
 4.341779e-09   1.345951e-02   3.099924e-01   3.099924e-01   2.762006e-02  
 4.731013e-09   1.466614e-02   3.099918e-01   3.099918e-01   2.656547e-02  
 5.153005e-09   1.597431e-02   3.099911e-01   3.099911e-01   2.551534e-02  
 5.611863e-09   1.739677e-02   3.099903e-01   3.099903e-01   2.446573e-02  
 6.112075e-09   1.894743e-02   3.099894e-01   3.099894e-01   2.341295e-02  
 6.658527e-09   2.064143e-02   3.099883e-01   3.099883e-01   2.235364e-02  
 7.256493e-09   2.249512e-02   3.099870e-01   3.099870e-01   2.128478e-02  
 7.911603e-09   2.452597e-02   3.099854e-01   3.099854e-01   2.020380e-02  
 8.629772e-09   2.675229e-02   3.099834e-01   3.099834e-01   1.910871e-02  
 9.417067e-09   2.919290e-02   3.099809e-01   3.099809e-01   1.799836e-02  
 1.027951e-08   3.186648e-02   3.099777e-01   3.099777e-01   1.687262e-02  
 1.122279e-08   3.479067e-02   3.099736e-01   3.099736e-01   1.573276e-02  
 1.222279e-08   3.789067e-02   3.099684e-01   3.099684e-01   1.461310e-02  
 1.322279e-08   4.099067e-02   3.099622e-01   3.099622e-01   1.357238e-02  
 1.422279e-08   4.409067e-02   3.099547e-01   3.099547e-01   1.260113e-02  
 1.522279e-08   4.719067e-02   3.099457e-01   3.099457e-01   1.169219e-02  
 1.622279e-08   5.029067e-02   3.099348e-01   3.099348e-01   1.084001e-02  
 1.722279e-08   5.339067e-02   3.099216e-01   3.099216e-01   1.004020e-02  
 1.822279e-08   5.649067e-02   3.099056e-01   3.099056e-01   9.289245e-03  
 1.922279e-08   5.959067e-02   3.098861e-01   3.098862e-01   8.584210e-03  
 2.022279e-08   6.269067e-02   3.098624e-01   3.098625e-01   7.922632e-03  
 2.122279e-08   6.579067e-02   3.098335e-01   3.098336e-01   7.302366e-03  
 2.222279e-08   6.889067e-02   3.097982e-01   3.097983e-01   6.721494e-03  
 2.322279e-08   7.199067e-02   3.097549e-01   3.097551e-01   6.178258e-03  
 2.422279e-08   7.509067e-02   3.097018e-01   3.097021e-01   5.671006e-03  
 2.522279e-08   7.819067e-02   3.096367e-01   3.096370e-01   5.198151e-03  
 2.622279e-08   8.129067e-02   3.095564e-01   3.095569e-01   4.758150e-03  
 2.722279e-08   8.439067e-02   3.094576e-01   3.094582e-01   4.349481e-03  
 2.822279e-08   8.749067e-02   3.093355e-01   3.093364e-01   3.970637e-03  
 2.922279e-08   9.059067e-02   3.091845e-01   3.091857e-01   3.620114e-03  
 3.022279e-08   9.369067e-02   3.089974e-01   3.089991e-01   3.296418e-03  
 3.122279e-08   9.679067e-02   3.087652e-01   3.087674e-01   2.998063e-03  
 3.222279e-08   9.989067e-02   3.084762e-01   3.084792e-01   2.723575e-03  
 3.322279e-08   1.029906e-01   3.081155e-01   3.081198e-01   2.471501e-03  
 3.422279e-08   1.060906e-01   3.076641e-01   3.076701e-01   2.240414e-03  
 3.522279e-08   1.091906e-01   3.070966e-01   3.071051e-01   2.028923e-03  
 3.622279e-08   1.122906e-01   3.063794e-01   3.063916e-01   1.835673e-03  
 3.722279e-08   1.153906e-01   3.054660e-01   3.054838e-01   1.659359e-03  
 3.822279e-08   1.184906e-01   3.042890e-01   3.043155e-01   1.498727e-03  
 3.922279e-08   1.215906e-01   3.027433e-01   3.027844e-01   1.352578e-03  
 4.022279e-08   1.246906e-01   3.006452e-01   3.007130e-01   1.219775e-03  
 4.122279e-08   1.277906e-01   2.976054e-01   2.977321e-01   1.099240e-03  
 4.174889e-08   1.294215e-01   2.953420e-01   2.955358e-01   1.040406e-03  
 4.220902e-08   1.308479e-01   2.926824e-01   2.929892e-01   9.913934e-04  
 4.259422e-08   1.320420e-01   2.896517e-01   2.901411e-01   9.520438e-04  
 4.287059e-08   1.328988e-01   2.867774e-01   2.874977e-01   9.247255e-04  
 4.307699e-08   1.335386e-01   2.840986e-01   2.850804e-01   9.048086e-04  
 4.325594e-08   1.340934e-01   2.813137e-01   2.826059e-01   8.878694e-04  
 4.343077e-08   1.346353e-01   2.781159e-01   2.798001e-01   8.716107e-04  
 4.362038e-08   1.352231e-01   2.740806e-01   2.762940e-01   8.542963e-04  
 4.381665e-08   1.358316e-01   2.692979e-01   2.721644e-01   8.367172e-04  
 4.401524e-08   1.364472e-01   2.639055e-01   2.675232e-01   8.192805e-04  
 4.418553e-08   1.369751e-01   2.589199e-01   2.632426e-01   8.046034e-04  
 4.433200e-08   1.374292e-01   2.544265e-01   2.593990e-01   7.921790e-04  
 4.447163e-08   1.378620e-01   2.500134e-01   2.556472e-01   7.805049e-04  
 4.461365e-08   1.383023e-01   2.454315e-01   2.517903e-01   7.687989e-04  
 4.476301e-08   1.387653e-01   2.405419e-01   2.477348e-01   7.566681e-04  
 4.492428e-08   1.392652e-01   2.352073e-01   2.434023e-01   7.437742e-04  
 4.510235e-08   1.398173e-01   2.292749e-01   2.387229e-01   7.297798e-04  
 4.530348e-08   1.404407e-01   2.225440e-01   2.336207e-01   7.142753e-04  
 4.553740e-08   1.411659e-01   2.146959e-01   2.279840e-01   6.966367e-04  
 4.582246e-08   1.420496e-01   2.051239e-01   2.215993e-01   6.757037e-04  
 4.612074e-08   1.429743e-01   1.951109e-01   2.155077e-01   6.544419e-04  
 4.642105e-08   1.439052e-01   1.850395e-01   2.099662e-01   6.336813e-04  
 4.673029e-08   1.448639e-01   1.746809e-01   2.048315e-01   6.129610e-04  
 4.705215e-08   1.458616e-01   1.639125e-01   2.000334e-01   5.920834e-04  
 4.739065e-08   1.469110e-01   1.525996e-01   1.955062e-01   5.708600e-04  
 4.775151e-08   1.480296e-01   1.405512e-01   1.911772e-01   5.490368e-04  
 4.814017e-08   1.492345e-01   1.275848e-01   1.869953e-01   5.264252e-04  
 4.856198e-08   1.505421e-01   1.135226e-01   1.829245e-01   5.028950e-04  
 4.902275e-08   1.519705e-01   9.817240e-02   1.789345e-01   4.783430e-04  
 4.952894e-08   1.535397e-01   8.133372e-02   1.749988e-01   4.526957e-04  
 5.008776e-08   1.552720e-01   6.284975e-02   1.710934e-01   4.259134e-04  
 5.070748e-08   1.571931e-01   4.298643e-02   1.671942e-01   3.979900e-04  
 5.094173e-08   1.579193e-01   3.599354e-02   1.658205e-01   3.878996e-04  
 5.115319e-08   1.585749e-01   3.029144e-02   1.646206e-01   3.790018e-04  
 5.133408e-08   1.591356e-01   2.612956e-02   1.636226e-01   3.715463e-04  
 5.148135e-08   1.595922e-01   2.333099e-02   1.628283e-01   3.655806e-04  
 5.164466e-08   1.600984e-01   2.083703e-02   1.619657e-01   3.590725e-04  
 5.181242e-08   1.606185e-01   1.882208e-02   1.610986e-01   3.525029e-04  
 5.194901e-08   1.610419e-01   1.748979e-02   1.604061e-01   3.472396e-04  
 5.207924e-08   1.614456e-01   1.640664e-02   1.597566e-01   3.422913e-04  
 5.223144e-08   1.619174e-01   1.531422e-02   1.590102e-01   3.365941e-04  
 5.242474e-08   1.625167e-01   1.413262e-02   1.580810e-01   3.294892e-04  
 5.265428e-08   1.632282e-01   1.295343e-02   1.570034e-01   3.212395e-04  
 5.291497e-08   1.640364e-01   1.182918e-02   1.558113e-01   3.121106e-04  
 5.322613e-08   1.650010e-01   1.070298e-02   1.544290e-01   3.015399e-04  
 5.361904e-08   1.662190e-01   9.520720e-03   1.527412e-01   2.886822e-04  
 5.411724e-08   1.677634e-01   8.292803e-03   1.506836e-01   2.731339e-04  
 5.474004e-08   1.696941e-01   7.054058e-03   1.482245e-01   2.548244e-04  
 5.549777e-08   1.720431e-01   5.854577e-03   1.453761e-01   2.341323e-04  
 5.641421e-08   1.748840e-01   4.718332e-03   1.421040e-01   2.112540e-04  
 5.741421e-08   1.779840e-01   3.757319e-03   1.387072e-01   1.887364e-04  
 5.841421e-08   1.810840e-01   3.008085e-03   1.354541e-01   1.685271e-04  
 5.941421e-08   1.841840e-01   2.417503e-03   1.323151e-01   1.503975e-04  
 6.041421e-08   1.872840e-01   1.948717e-03   1.292676e-01   1.341412e-04  
 6.141421e-08   1.903840e-01   1.574806e-03   1.262938e-01   1.195718e-04  
 6.241421e-08   1.934840e-01   1.275494e-03   1.233797e-01   1.065209e-04  
 6.341421e-08   1.965840e-01   1.035216e-03   1.205144e-01   9.483680e-05  
 6.441421e-08   1.996840e-01   8.418727e-04   1.176890e-01   8.438249e-05  
 6.541421e-08   2.027840e-01   6.859777e-04   1.148968e-01   7.503453e-05  
 6.641421e-08   2.058840e-01   5.600453e-04   1.121321e-01   6.668158e-05  
 6.741421e-08   2.089840e-01   4.581416e-04   1.093907e-01   5.922322e-05  
 6.841421e-08   2.120840e-01   3.755455e-04   1.066689e-01   5.256887e-05  
 6.941421e-08   2.151840e-01   3.084898e-04   1.039640e-01   4.663682e-05  
 7.041421e-08   2.182840e-01   2.539621e-04   1.012740e-01   4.135329e-05  
 7.141421e-08   2.213840e-01   2.095485e-04   9.859714e-02   3.665172e-05  
 7.241421e-08   2.244840e-01   1.733115e-04   9.593204e-02   3.247195e-05  
 7.341421e-08   2.275840e-01   1.436939e-04   9.327779e-02   2.875967e-05  
 7.441421e-08   2.306840e-01   1.194425e-04   9.063367e-02   2.546583e-05  
 7.541421e-08   2.337840e-01   9.954747e-05   8.799920e-02   2.254610e-05  
 7.641421e-08   2.368840e-01   8.319390e-05   8.537406e-02   1.996048e-05  
 7.741421e-08   2.399840e-01   6.972389e-05   8.275809e-02   1.767286e-05  
 7.841421e-08   2.430840e-01   5.860539e-05   8.015128e-02   1.565070e-05  
 7.941421e-08   2.461840e-01   4.940768e-05   7.755376e-02   1.386467e-05  
 8.041421e-08   2.492840e-01   4.178169e-05   7.496578e-02   1.228840e-05  
 8.141421e-08   2.523840e-01   3.544410e-05   7.238772e-02   1.089822e-05  
 8.241421e-08   2.554840e-01   3.016470e-05   6.982015e-02   9.672904e-06  
 8.341421e-08   2.585840e-01   2.575611e-05   6.726384e-02   8.593440e-06  
 8.441421e-08   2.616840e-01   2.206564e-05   6.471978e-02   7.642868e-06  
 8.541421e-08   2.647840e-01   1.896863e-05   6.218933e-02   6.806065e-06  
 8.641421e-08   2.678840e-01   1.636314e-05   5.967425e-02   6.069579e-06  
 8.741421e-08   2.709840e-01   1.416565e-05   5.717690e-02   5.421465e-06  
 8.841421e-08   2.740840e-01   1.230763e-05   5.470040e-02   4.851137e-06  
 8.941421e-08   2.771840e-01   1.073271e-05   5.224891e-02   4.349233e-06  
 9.041421e-08   2.802840e-01   9.394451e-06   4.982798e-02   3.907480e-06  
 9.141421e-08   2.833840e-01   8.254482e-06   4.744498e-02   3.518586e-06  
 9.241421e-08   2.864840e-01   7.281071e-06   4.510958e-02   3.176124e-06  
 9.341421e-08   2.895840e-01   6.447892e-06   4.283426e-02   2.874444e-06  
 9.441421e-08   2.926840e-01   5.733061e-06   4.063455e-02   2.608576e-06  
 9.541421e-08   2.957840e-01   5.118344e-06   3.852884e-02   2.374159e-06  
 9.641421e-08   2.988840e-01   4.588516e-06   3.653720e-02   2.167363e-06  
 9.741421e-08   3.019840e-01   4.130832e-06   3.467912e-02   1.984830e-06  
 9.841421e-08   3.050840e-01   3.734601e-06   3.297028e-02   1.823614e-06  
 9.920710e-08   3.075420e-01   3.458106e-06   3.172766e-02   1.709217e-06  
 1.000000e-07   3.100000e-01   3.210732e-06   3.058543e-02   1.605452e-06  
