
time (s)       getData("/nvtc getData("/SNMh getData("/SNMr getData("/SNMw

 0.000000e+00   0.000000e+00   3.199951e-01   3.199951e-01   5.634678e-02  
 2.514159e-11   8.045311e-05   3.199970e-01   3.199969e-01   5.612522e-02  
 4.479686e-11   1.433499e-04   3.199970e-01   3.199970e-01   5.592151e-02  
 7.065412e-11   2.260932e-04   3.199970e-01   3.199970e-01   5.564745e-02  
 1.091814e-10   3.493807e-04   3.199969e-01   3.199969e-01   5.523915e-02  
 1.831838e-10   5.861881e-04   3.199969e-01   3.199969e-01   5.446461e-02  
 3.311884e-10   1.059803e-03   3.199968e-01   3.199968e-01   5.295471e-02  
 5.190500e-10   1.660960e-03   3.199967e-01   3.199967e-01   5.111577e-02  
 7.230345e-10   2.313710e-03   3.199965e-01   3.199965e-01   4.922114e-02  
 9.385552e-10   3.003376e-03   3.199964e-01   3.199964e-01   4.733780e-02  
 1.159876e-09   3.711605e-03   3.199962e-01   3.199962e-01   4.553099e-02  
 1.383809e-09   4.428191e-03   3.199960e-01   3.199960e-01   4.383176e-02  
 1.610825e-09   5.154642e-03   3.199958e-01   3.199958e-01   4.223640e-02  
 1.842235e-09   5.895153e-03   3.199956e-01   3.199956e-01   4.073446e-02  
 2.079632e-09   6.654823e-03   3.199954e-01   3.199954e-01   3.931445e-02  
 2.325018e-09   7.440057e-03   3.199952e-01   3.199952e-01   3.796392e-02  
 2.580586e-09   8.257877e-03   3.199949e-01   3.199949e-01   3.667131e-02  
 2.848631e-09   9.115620e-03   3.199947e-01   3.199947e-01   3.542661e-02  
 3.131584e-09   1.002107e-02   3.199944e-01   3.199944e-01   3.422103e-02  
 3.432046e-09   1.098254e-02   3.199940e-01   3.199940e-01   3.304687e-02  
 3.752809e-09   1.200898e-02   3.199937e-01   3.199937e-01   3.189730e-02  
 4.096897e-09   1.311007e-02   3.199932e-01   3.199932e-01   3.076623e-02  
 4.467611e-09   1.429635e-02   3.199928e-01   3.199928e-01   2.964814e-02  
 4.868562e-09   1.557939e-02   3.199922e-01   3.199922e-01   2.853793e-02  
 5.303714e-09   1.697188e-02   3.199916e-01   3.199915e-01   2.743086e-02  
 5.777419e-09   1.848774e-02   3.199908e-01   3.199908e-01   2.632250e-02  
 6.294441e-09   2.014221e-02   3.199899e-01   3.199899e-01   2.520870e-02  
 6.859977e-09   2.195192e-02   3.199888e-01   3.199888e-01   2.408559e-02  
 7.479647e-09   2.393487e-02   3.199875e-01   3.199875e-01   2.294967e-02  
 8.159462e-09   2.611027e-02   3.199859e-01   3.199859e-01   2.179788e-02  
 8.905746e-09   2.849838e-02   3.199838e-01   3.199838e-01   2.062779e-02  
 9.724992e-09   3.111997e-02   3.199813e-01   3.199813e-01   1.943781e-02  
 1.062364e-08   3.399565e-02   3.199781e-01   3.199781e-01   1.822753e-02  
 1.160776e-08   3.714484e-02   3.199739e-01   3.199739e-01   1.699804e-02  
 1.260776e-08   4.034484e-02   3.199688e-01   3.199688e-01   1.583620e-02  
 1.360776e-08   4.354484e-02   3.199627e-01   3.199627e-01   1.475077e-02  
 1.460776e-08   4.674484e-02   3.199553e-01   3.199553e-01   1.373294e-02  
 1.560776e-08   4.994484e-02   3.199464e-01   3.199465e-01   1.277600e-02  
 1.660776e-08   5.314484e-02   3.199357e-01   3.199357e-01   1.187476e-02  
 1.760776e-08   5.634484e-02   3.199227e-01   3.199227e-01   1.102515e-02  
 1.860776e-08   5.954484e-02   3.199069e-01   3.199069e-01   1.022393e-02  
 1.960776e-08   6.274484e-02   3.198877e-01   3.198877e-01   9.468440e-03  
 2.060776e-08   6.594484e-02   3.198642e-01   3.198643e-01   8.756465e-03  
 2.160776e-08   6.914484e-02   3.198356e-01   3.198357e-01   8.086113e-03  
 2.260776e-08   7.234484e-02   3.198005e-01   3.198006e-01   7.455715e-03  
 2.360776e-08   7.554484e-02   3.197574e-01   3.197576e-01   6.863757e-03  
 2.460776e-08   7.874484e-02   3.197045e-01   3.197047e-01   6.308818e-03  
 2.560776e-08   8.194484e-02   3.196392e-01   3.196395e-01   5.789538e-03  
 2.660776e-08   8.514484e-02   3.195586e-01   3.195590e-01   5.304577e-03  
 2.760776e-08   8.834484e-02   3.194590e-01   3.194595e-01   4.852602e-03  
 2.860776e-08   9.154484e-02   3.193355e-01   3.193362e-01   4.432265e-03  
 2.960776e-08   9.474484e-02   3.191821e-01   3.191831e-01   4.042202e-03  
 3.060776e-08   9.794484e-02   3.189911e-01   3.189925e-01   3.681024e-03  
 3.160776e-08   1.011448e-01   3.187530e-01   3.187549e-01   3.347325e-03  
 3.260776e-08   1.043448e-01   3.184551e-01   3.184578e-01   3.039678e-03  
 3.360776e-08   1.075448e-01   3.180816e-01   3.180853e-01   2.756652e-03  
 3.460776e-08   1.107448e-01   3.176113e-01   3.176165e-01   2.496812e-03  
 3.560776e-08   1.139448e-01   3.170166e-01   3.170240e-01   2.258736e-03  
 3.660776e-08   1.171448e-01   3.162601e-01   3.162709e-01   2.041017e-03  
 3.760776e-08   1.203448e-01   3.152894e-01   3.153053e-01   1.842279e-03  
 3.860776e-08   1.235448e-01   3.140273e-01   3.140514e-01   1.661182e-03  
 3.960776e-08   1.267448e-01   3.123503e-01   3.123883e-01   1.496431e-03  
 4.060776e-08   1.299448e-01   3.100321e-01   3.100969e-01   1.346782e-03  
 4.158006e-08   1.330562e-01   3.066782e-01   3.068046e-01   1.214629e-03  
 4.202181e-08   1.344698e-01   3.045075e-01   3.046964e-01   1.158651e-03  
 4.240406e-08   1.356930e-01   3.020399e-01   3.023279e-01   1.112157e-03  
 4.274087e-08   1.367708e-01   2.991510e-01   2.995988e-01   1.072638e-03  
 4.298818e-08   1.375621e-01   2.963944e-01   2.970418e-01   1.044459e-03  
 4.317396e-08   1.381566e-01   2.938414e-01   2.947117e-01   1.023747e-03  
 4.333687e-08   1.386780e-01   2.911813e-01   2.923155e-01   1.005900e-03  
 4.349843e-08   1.391949e-01   2.880999e-01   2.895697e-01   9.884914e-04  
 4.367502e-08   1.397600e-01   2.841956e-01   2.861199e-01   9.697851e-04  
 4.386257e-08   1.403602e-01   2.794519e-01   2.819503e-01   9.502801e-04  
 4.405400e-08   1.409728e-01   2.740521e-01   2.772153e-01   9.307526e-04  
 4.421390e-08   1.414844e-01   2.691903e-01   2.729591e-01   9.147308e-04  
 4.435022e-08   1.419207e-01   2.648527e-01   2.691721e-01   9.012768e-04  
 4.448072e-08   1.423383e-01   2.605779e-01   2.654588e-01   8.885709e-04  
 4.461419e-08   1.427654e-01   2.561170e-01   2.616162e-01   8.757500e-04  
 4.475522e-08   1.432167e-01   2.513350e-01   2.575495e-01   8.623929e-04  
 4.490794e-08   1.437054e-01   2.461023e-01   2.531809e-01   8.481441e-04  
 4.507670e-08   1.442454e-01   2.402785e-01   2.484426e-01   8.326571e-04  
 4.526694e-08   1.448542e-01   2.336829e-01   2.432632e-01   8.155192e-04  
 4.548670e-08   1.455574e-01   2.260433e-01   2.375466e-01   7.961354e-04  
 4.574983e-08   1.463994e-01   2.168861e-01   2.311328e-01   7.734974e-04  
 4.604017e-08   1.473285e-01   2.067836e-01   2.246358e-01   7.492248e-04  
 4.633429e-08   1.482697e-01   1.965583e-01   2.186727e-01   7.253714e-04  
 4.663370e-08   1.492278e-01   1.861605e-01   2.132047e-01   7.018275e-04  
 4.694364e-08   1.502196e-01   1.754093e-01   2.081219e-01   6.782187e-04  
 4.726767e-08   1.512565e-01   1.641814e-01   2.033573e-01   6.543419e-04  
 4.761077e-08   1.523544e-01   1.523043e-01   1.988363e-01   6.299299e-04  
 4.797842e-08   1.535309e-01   1.395878e-01   1.944960e-01   6.047307e-04  
 4.837590e-08   1.548028e-01   1.258496e-01   1.902923e-01   5.785650e-04  
 4.880876e-08   1.561880e-01   1.108984e-01   1.861904e-01   5.512953e-04  
 4.928312e-08   1.577060e-01   9.452701e-02   1.821606e-01   5.228153e-04  
 4.980581e-08   1.593786e-01   7.652693e-02   1.781765e-01   4.930564e-04  
 5.038457e-08   1.612306e-01   5.679276e-02   1.742128e-01   4.619888e-04  
 5.076168e-08   1.624373e-01   4.434024e-02   1.718391e-01   4.427591e-04  
 5.100013e-08   1.632004e-01   3.692779e-02   1.704109e-01   4.309961e-04  
 5.121461e-08   1.638867e-01   3.091056e-02   1.691693e-01   4.206704e-04  
 5.138102e-08   1.644192e-01   2.689556e-02   1.682323e-01   4.128218e-04  
 5.151919e-08   1.648614e-01   2.409794e-02   1.674709e-01   4.064120e-04  
 5.168036e-08   1.653771e-01   2.145121e-02   1.666005e-01   3.990545e-04  
 5.184472e-08   1.659031e-01   1.932447e-02   1.657318e-01   3.916823e-04  
 5.197955e-08   1.663345e-01   1.790935e-02   1.650327e-01   3.857320e-04  
 5.210658e-08   1.667410e-01   1.677613e-02   1.643847e-01   3.802047e-04  
 5.225246e-08   1.672078e-01   1.565532e-02   1.636527e-01   3.739506e-04  
 5.243462e-08   1.677908e-01   1.446329e-02   1.627560e-01   3.662785e-04  
 5.264894e-08   1.684766e-01   1.328264e-02   1.617245e-01   3.574445e-04  
 5.289153e-08   1.692529e-01   1.215841e-02   1.605855e-01   3.476905e-04  
 5.317995e-08   1.701758e-01   1.103430e-02   1.592680e-01   3.364239e-04  
 5.354167e-08   1.713333e-01   9.859063e-03   1.576670e-01   3.227858e-04  
 5.399727e-08   1.727912e-01   8.641750e-03   1.557238e-01   3.063582e-04  
 5.456764e-08   1.746164e-01   7.405900e-03   1.533920e-01   2.869144e-04  
 5.527549e-08   1.768815e-01   6.180927e-03   1.506315e-01   2.644186e-04  
 5.613591e-08   1.796349e-01   5.011847e-03   1.474408e-01   2.393361e-04  
 5.713591e-08   1.828349e-01   3.962686e-03   1.439155e-01   2.130348e-04  
 5.813591e-08   1.860349e-01   3.152782e-03   1.405460e-01   1.895033e-04  
 5.913591e-08   1.892349e-01   2.519422e-03   1.372995e-01   1.684619e-04  
 6.013591e-08   1.924349e-01   2.020149e-03   1.341510e-01   1.496583e-04  
 6.113591e-08   1.956349e-01   1.624435e-03   1.310810e-01   1.328647e-04  
 6.213591e-08   1.988349e-01   1.309542e-03   1.280743e-01   1.178760e-04  
 6.313591e-08   2.020349e-01   1.058172e-03   1.251192e-01   1.045072e-04  
 6.413591e-08   2.052349e-01   8.569837e-04   1.222063e-01   9.259200e-05  
 6.513591e-08   2.084349e-01   6.955889e-04   1.193282e-01   8.198046e-05  
 6.613591e-08   2.116349e-01   5.658474e-04   1.164790e-01   7.253768e-05  
 6.713591e-08   2.148349e-01   4.613467e-04   1.136542e-01   6.414222e-05  
 6.813591e-08   2.180349e-01   3.770167e-04   1.108502e-01   5.668470e-05  
 6.913591e-08   2.212349e-01   3.088364e-04   1.080639e-01   5.006662e-05  
 7.013591e-08   2.244349e-01   2.536089e-04   1.052933e-01   4.419925e-05  
 7.113591e-08   2.276349e-01   2.087874e-04   1.025366e-01   3.900267e-05  
 7.213591e-08   2.308349e-01   1.723393e-04   9.979250e-02   3.440487e-05  
 7.313591e-08   2.340349e-01   1.426399e-04   9.705988e-02   3.034100e-05  
 7.413591e-08   2.372349e-01   1.183886e-04   9.433806e-02   2.675265e-05  
 7.513591e-08   2.404349e-01   9.854281e-05   9.162652e-02   2.358726e-05  
 7.613591e-08   2.436349e-01   8.226537e-05   8.892489e-02   2.079759e-05  
 7.713591e-08   2.468349e-01   6.888364e-05   8.623300e-02   1.834120e-05  
 7.813591e-08   2.500349e-01   5.785609e-05   8.355078e-02   1.618002e-05  
 7.913591e-08   2.532349e-01   4.874625e-05   8.087830e-02   1.427996e-05  
 8.013591e-08   2.564349e-01   4.120175e-05   7.821578e-02   1.261054e-05  
 8.113591e-08   2.596349e-01   3.493770e-05   7.556356e-02   1.114459e-05  
 8.213591e-08   2.628349e-01   2.972335e-05   7.292217e-02   9.857883e-06  
 8.313591e-08   2.660349e-01   2.537152e-05   7.029232e-02   8.728906e-06  
 8.413591e-08   2.692349e-01   2.173007e-05   6.767503e-02   7.738577e-06  
 8.513591e-08   2.724349e-01   1.867508e-05   6.507161e-02   6.870008e-06  
 8.613591e-08   2.756349e-01   1.610545e-05   6.248386e-02   6.108279e-06  
 8.713591e-08   2.788349e-01   1.393849e-05   5.991418e-02   5.440232e-06  
 8.813591e-08   2.820349e-01   1.210645e-05   5.736578e-02   4.854281e-06  
 8.913591e-08   2.852349e-01   1.055365e-05   5.484296e-02   4.340242e-06  
 9.013591e-08   2.884349e-01   9.234289e-06   5.235147e-02   3.889175e-06  
 9.113591e-08   2.916349e-01   8.110527e-06   4.989899e-02   3.493237e-06  
 9.213591e-08   2.948349e-01   7.151090e-06   4.749564e-02   3.145559e-06  
 9.313591e-08   2.980349e-01   6.330034e-06   4.515450e-02   2.840125e-06  
 9.413591e-08   3.012349e-01   5.625794e-06   4.289193e-02   2.571675e-06  
 9.513591e-08   3.044349e-01   5.020401e-06   4.072736e-02   2.335607e-06  
 9.613591e-08   3.076349e-01   4.498844e-06   3.868203e-02   2.127899e-06  
 9.713591e-08   3.108349e-01   4.048554e-06   3.677651e-02   1.945037e-06  
 9.813591e-08   3.140349e-01   3.658982e-06   3.502730e-02   1.783949e-06  
 9.913591e-08   3.172349e-01   3.321253e-06   3.344357e-02   1.641950e-06  
 1.000000e-07   3.200000e-01   3.065386e-06   3.220884e-02   1.532812e-06  
