
time (s)       getData("/nvtc getData("/SNMh getData("/SNMr getData("/SNMw

 0.000000e+00   0.000000e+00   3.299954e-01   3.299954e-01   5.971841e-02  
 2.476972e-11   8.174010e-05   3.299972e-01   3.299972e-01   5.949388e-02  
 4.409734e-11   1.455212e-04   3.299972e-01   3.299972e-01   5.928887e-02  
 6.961683e-11   2.297355e-04   3.299972e-01   3.299972e-01   5.901254e-02  
 1.082258e-10   3.571452e-04   3.299972e-01   3.299972e-01   5.859478e-02  
 1.838642e-10   6.067518e-04   3.299971e-01   3.299971e-01   5.778635e-02  
 3.351409e-10   1.105965e-03   3.299970e-01   3.299970e-01   5.620984e-02  
 5.282510e-10   1.743228e-03   3.299969e-01   3.299969e-01   5.427823e-02  
 7.382691e-10   2.436288e-03   3.299967e-01   3.299967e-01   5.228476e-02  
 9.600188e-10   3.168062e-03   3.299966e-01   3.299966e-01   5.030459e-02  
 1.187612e-09   3.919121e-03   3.299964e-01   3.299964e-01   4.840626e-02  
 1.417741e-09   4.678548e-03   3.299962e-01   3.299962e-01   4.662263e-02  
 1.650862e-09   5.447847e-03   3.299961e-01   3.299961e-01   4.494986e-02  
 1.888357e-09   6.231580e-03   3.299959e-01   3.299959e-01   4.337655e-02  
 2.131909e-09   7.035300e-03   3.299957e-01   3.299957e-01   4.189016e-02  
 2.383616e-09   7.865935e-03   3.299954e-01   3.299954e-01   4.047722e-02  
 2.645781e-09   8.731079e-03   3.299952e-01   3.299952e-01   3.912527e-02  
 2.920808e-09   9.638667e-03   3.299949e-01   3.299949e-01   3.782347e-02  
 3.211248e-09   1.059711e-02   3.299946e-01   3.299946e-01   3.656236e-02  
 3.519829e-09   1.161543e-02   3.299943e-01   3.299943e-01   3.533358e-02  
 3.849484e-09   1.270329e-02   3.299939e-01   3.299939e-01   3.412978e-02  
 4.203391e-09   1.387119e-02   3.299935e-01   3.299935e-01   3.294435e-02  
 4.585023e-09   1.513057e-02   3.299930e-01   3.299930e-01   3.177125e-02  
 4.998187e-09   1.649401e-02   3.299925e-01   3.299925e-01   3.060491e-02  
 5.447067e-09   1.797532e-02   3.299918e-01   3.299918e-01   2.944013e-02  
 5.936264e-09   1.958967e-02   3.299911e-01   3.299911e-01   2.827197e-02  
 6.470822e-09   2.135371e-02   3.299902e-01   3.299902e-01   2.709581e-02  
 7.056252e-09   2.328563e-02   3.299891e-01   3.299891e-01   2.590727e-02  
 7.698524e-09   2.540513e-02   3.299878e-01   3.299878e-01   2.470233e-02  
 8.404032e-09   2.773330e-02   3.299861e-01   3.299861e-01   2.347745e-02  
 9.179509e-09   3.029238e-02   3.299841e-01   3.299841e-01   2.222970e-02  
 1.003187e-08   3.310518e-02   3.299815e-01   3.299815e-01   2.095708e-02  
 1.096798e-08   3.619435e-02   3.299781e-01   3.299781e-01   1.965883e-02  
 1.196798e-08   3.949435e-02   3.299739e-01   3.299739e-01   1.836861e-02  
 1.296798e-08   4.279435e-02   3.299688e-01   3.299688e-01   1.716357e-02  
 1.396798e-08   4.609435e-02   3.299627e-01   3.299627e-01   1.603263e-02  
 1.496798e-08   4.939435e-02   3.299554e-01   3.299554e-01   1.496748e-02  
 1.596798e-08   5.269435e-02   3.299466e-01   3.299466e-01   1.396180e-02  
 1.696798e-08   5.599435e-02   3.299359e-01   3.299359e-01   1.301071e-02  
 1.796798e-08   5.929435e-02   3.299229e-01   3.299230e-01   1.211039e-02  
 1.896798e-08   6.259435e-02   3.299072e-01   3.299073e-01   1.125780e-02  
 1.996798e-08   6.589435e-02   3.298881e-01   3.298881e-01   1.045053e-02  
 2.096798e-08   6.919435e-02   3.298647e-01   3.298648e-01   9.686572e-03  
 2.196798e-08   7.249435e-02   3.298361e-01   3.298362e-01   8.964251e-03  
 2.296798e-08   7.579435e-02   3.298010e-01   3.298011e-01   8.282129e-03  
 2.396798e-08   7.909435e-02   3.297579e-01   3.297581e-01   7.638922e-03  
 2.496798e-08   8.239435e-02   3.297048e-01   3.297050e-01   7.033447e-03  
 2.596798e-08   8.569435e-02   3.296392e-01   3.296394e-01   6.464577e-03  
 2.696798e-08   8.899435e-02   3.295579e-01   3.295582e-01   5.931202e-03  
 2.796798e-08   9.229435e-02   3.294571e-01   3.294576e-01   5.432207e-03  
 2.896798e-08   9.559435e-02   3.293318e-01   3.293324e-01   4.966449e-03  
 2.996798e-08   9.889435e-02   3.291755e-01   3.291764e-01   4.532746e-03  
 3.096798e-08   1.021943e-01   3.289803e-01   3.289815e-01   4.129868e-03  
 3.196798e-08   1.054943e-01   3.287357e-01   3.287374e-01   3.756537e-03  
 3.296798e-08   1.087943e-01   3.284285e-01   3.284308e-01   3.411432e-03  
 3.396798e-08   1.120943e-01   3.280413e-01   3.280445e-01   3.093189e-03  
 3.496798e-08   1.153943e-01   3.275512e-01   3.275558e-01   2.800414e-03  
 3.596798e-08   1.186943e-01   3.269281e-01   3.269347e-01   2.531693e-03  
 3.696798e-08   1.219943e-01   3.261305e-01   3.261400e-01   2.285604e-03  
 3.796798e-08   1.252943e-01   3.250996e-01   3.251138e-01   2.060726e-03  
 3.896798e-08   1.285943e-01   3.237474e-01   3.237692e-01   1.855656e-03  
 3.996798e-08   1.318943e-01   3.219285e-01   3.219637e-01   1.669016e-03  
 4.096798e-08   1.351943e-01   3.193643e-01   3.194265e-01   1.499465e-03  
 4.187311e-08   1.381812e-01   3.158454e-01   3.159690e-01   1.359651e-03  
 4.225411e-08   1.394385e-01   3.137378e-01   3.139195e-01   1.304445e-03  
 4.258131e-08   1.405183e-01   3.113983e-01   3.116681e-01   1.258681e-03  
 4.287977e-08   1.415032e-01   3.086139e-01   3.090247e-01   1.218228e-03  
 4.310299e-08   1.422398e-01   3.059446e-01   3.065300e-01   1.188758e-03  
 4.327157e-08   1.427961e-01   3.034852e-01   3.042630e-01   1.166940e-03  
 4.342106e-08   1.432895e-01   3.009144e-01   3.019196e-01   1.147901e-03  
 4.357171e-08   1.437866e-01   2.979045e-01   2.992012e-01   1.129005e-03  
 4.373864e-08   1.443375e-01   2.940510e-01   2.957456e-01   1.108402e-03  
 4.391891e-08   1.449324e-01   2.892973e-01   2.915007e-01   1.086545e-03  
 4.410428e-08   1.455441e-01   2.838487e-01   2.866434e-01   1.064486e-03  
 4.425394e-08   1.460380e-01   2.791151e-01   2.824277e-01   1.046979e-03  
 4.438072e-08   1.464564e-01   2.749281e-01   2.787067e-01   1.032358e-03  
 4.450337e-08   1.468611e-01   2.707646e-01   2.750224e-01   1.018394e-03  
 4.463001e-08   1.472790e-01   2.663817e-01   2.711725e-01   1.004160e-03  
 4.476468e-08   1.477234e-01   2.616541e-01   2.670672e-01   9.892261e-04  
 4.491110e-08   1.482066e-01   2.564617e-01   2.626326e-01   9.732237e-04  
 4.507317e-08   1.487414e-01   2.506731e-01   2.578030e-01   9.557920e-04  
 4.525583e-08   1.493442e-01   2.441183e-01   2.525076e-01   9.364938e-04  
 4.546611e-08   1.500381e-01   2.365520e-01   2.466589e-01   9.147276e-04  
 4.571512e-08   1.508599e-01   2.275815e-01   2.401325e-01   8.895620e-04  
 4.600046e-08   1.518015e-01   2.173029e-01   2.332334e-01   8.615207e-04  
 4.629055e-08   1.527588e-01   2.068608e-01   2.268648e-01   8.338606e-04  
 4.658322e-08   1.537246e-01   1.963366e-01   2.210728e-01   8.067975e-04  
 4.688465e-08   1.547193e-01   1.855095e-01   2.157161e-01   7.797866e-04  
 4.719808e-08   1.557536e-01   1.742625e-01   2.107248e-01   7.526003e-04  
 4.752804e-08   1.568425e-01   1.624332e-01   2.060202e-01   7.249424e-04  
 4.788008e-08   1.580042e-01   1.498231e-01   2.015279e-01   6.964883e-04  
 4.825944e-08   1.592561e-01   1.362443e-01   1.971960e-01   6.670030e-04  
 4.867152e-08   1.606160e-01   1.215044e-01   1.929852e-01   6.363082e-04  
 4.912224e-08   1.621034e-01   1.053931e-01   1.888619e-01   6.042603e-04  
 4.961818e-08   1.637400e-01   8.768734e-02   1.847973e-01   5.707590e-04  
 5.016673e-08   1.655502e-01   6.818813e-02   1.807646e-01   5.357494e-04  
 5.077639e-08   1.675620e-01   4.702646e-02   1.767373e-01   4.992235e-04  
 5.102010e-08   1.683663e-01   3.904877e-02   1.752397e-01   4.852917e-04  
 5.124301e-08   1.691019e-01   3.239737e-02   1.739178e-01   4.728723e-04  
 5.142593e-08   1.697055e-01   2.770133e-02   1.728648e-01   4.629055e-04  
 5.156617e-08   1.701683e-01   2.469586e-02   1.720759e-01   4.553996e-04  
 5.171866e-08   1.706715e-01   2.203227e-02   1.712352e-01   4.473691e-04  
 5.188088e-08   1.712069e-01   1.978694e-02   1.703593e-01   4.389734e-04  
 5.201454e-08   1.716479e-01   1.828948e-02   1.696513e-01   4.321681e-04  
 5.213807e-08   1.720556e-01   1.711644e-02   1.690075e-01   4.259675e-04  
 5.227793e-08   1.725172e-01   1.597360e-02   1.682901e-01   4.190486e-04  
 5.245090e-08   1.730880e-01   1.476956e-02   1.674193e-01   4.106394e-04  
 5.265305e-08   1.737550e-01   1.358359e-02   1.664231e-01   4.010147e-04  
 5.288065e-08   1.745061e-01   1.245845e-02   1.653277e-01   3.904334e-04  
 5.315003e-08   1.753951e-01   1.133650e-02   1.640645e-01   3.782522e-04  
 5.348612e-08   1.765042e-01   1.016676e-02   1.625349e-01   3.635589e-04  
 5.390716e-08   1.778936e-01   8.957684e-03   1.606846e-01   3.459149e-04  
 5.443203e-08   1.796257e-01   7.729967e-03   1.584685e-01   3.250558e-04  
 5.509750e-08   1.818217e-01   6.482570e-03   1.557833e-01   3.003217e-04  
 5.591097e-08   1.845062e-01   5.283247e-03   1.526584e-01   2.725090e-04  
 5.689406e-08   1.877504e-01   4.166236e-03   1.490691e-01   2.421554e-04  
 5.789406e-08   1.910504e-01   3.295418e-03   1.455842e-01   2.145887e-04  
 5.889406e-08   1.943504e-01   2.619623e-03   1.422312e-01   1.900184e-04  
 5.989406e-08   1.976504e-01   2.090389e-03   1.389825e-01   1.681350e-04  
 6.089406e-08   2.009504e-01   1.673412e-03   1.358171e-01   1.486597e-04  
 6.189406e-08   2.042504e-01   1.343424e-03   1.327187e-01   1.313412e-04  
 6.289406e-08   2.075504e-01   1.081365e-03   1.296745e-01   1.159535e-04  
 6.389406e-08   2.108504e-01   8.726451e-04   1.266747e-01   1.022934e-04  
 6.489406e-08   2.141504e-01   7.059802e-04   1.237114e-01   9.017808e-05  
 6.589406e-08   2.174504e-01   5.725843e-04   1.207784e-01   7.944308e-05  
 6.689406e-08   2.207504e-01   4.655783e-04   1.178710e-01   6.994068e-05  
 6.789406e-08   2.240504e-01   3.795550e-04   1.149853e-01   6.153804e-05  
 6.889406e-08   2.273504e-01   3.102507e-04   1.121184e-01   5.411570e-05  
 6.989406e-08   2.306504e-01   2.542943e-04   1.092680e-01   4.756633e-05  
 7.089406e-08   2.339504e-01   2.090148e-04   1.064322e-01   4.179342e-05  
 7.189406e-08   2.372504e-01   1.722916e-04   1.036097e-01   3.671031e-05  
 7.289406e-08   2.405504e-01   1.424381e-04   1.007994e-01   3.223918e-05  
 7.389406e-08   2.438504e-01   1.181108e-04   9.800057e-02   2.831024e-05  
 7.489406e-08   2.471504e-01   9.823771e-05   9.521251e-02   2.486094e-05  
 7.589406e-08   2.504504e-01   8.196200e-05   9.243489e-02   2.183536e-05  
 7.689406e-08   2.537504e-01   6.859791e-05   8.966745e-02   1.918351e-05  
 7.789406e-08   2.570504e-01   5.759554e-05   8.691008e-02   1.686084e-05  
 7.889406e-08   2.603504e-01   4.851324e-05   8.416282e-02   1.482770e-05  
 7.989406e-08   2.636504e-01   4.099562e-05   8.142581e-02   1.304888e-05  
 8.089406e-08   2.669504e-01   3.475617e-05   7.869938e-02   1.149319e-05  
 8.189406e-08   2.702504e-01   2.956346e-05   7.598402e-02   1.013303e-05  
 8.289406e-08   2.735504e-01   2.523014e-05   7.328046e-02   8.944067e-06  
 8.389406e-08   2.768504e-01   2.160421e-05   7.058969e-02   7.904838e-06  
 8.489406e-08   2.801504e-01   1.856210e-05   6.791310e-02   6.996497e-06  
 8.589406e-08   2.834504e-01   1.600307e-05   6.525255e-02   6.202498e-06  
 8.689406e-08   2.867504e-01   1.384485e-05   6.261054e-02   5.508338e-06  
 8.789406e-08   2.900504e-01   1.202003e-05   5.999044e-02   4.901325e-06  
 8.889406e-08   2.933504e-01   1.047328e-05   5.739678e-02   4.370364e-06  
 8.989406e-08   2.966504e-01   9.159047e-06   5.483566e-02   3.905764e-06  
 9.089406e-08   2.999504e-01   8.039727e-06   5.231517e-02   3.499068e-06  
 9.189406e-08   3.032504e-01   7.084220e-06   4.984605e-02   3.142903e-06  
 9.289406e-08   3.065504e-01   6.266722e-06   4.744217e-02   2.830839e-06  
 9.389406e-08   3.098504e-01   5.565773e-06   4.512089e-02   2.557274e-06  
 9.489406e-08   3.131504e-01   4.963480e-06   4.290282e-02   2.317328e-06  
 9.589406e-08   3.164504e-01   4.444888e-06   4.081038e-02   2.106750e-06  
 9.689406e-08   3.197504e-01   3.997467e-06   3.886513e-02   1.921836e-06  
 9.789406e-08   3.230504e-01   3.610690e-06   3.708397e-02   1.759359e-06  
 9.889406e-08   3.263504e-01   3.275699e-06   3.547583e-02   1.616506e-06  
 9.944703e-08   3.281752e-01   3.109898e-06   3.466102e-02   1.545023e-06  
 1.000000e-07   3.300000e-01   2.956530e-06   3.389779e-02   1.478419e-06  
