
time (s)       getData("/nvtc getData("/SNMh getData("/SNMr getData("/SNMw

 0.000000e+00   0.000000e+00   7.496185e-01   7.496200e-01   2.957789e-01  
 1.676106e-11   1.257079e-04   7.496198e-01   7.496214e-01   2.956597e-01  
 2.919029e-11   2.189271e-04   7.496190e-01   7.496206e-01   2.955655e-01  
 4.736499e-11   3.552374e-04   7.496177e-01   7.496193e-01   2.954274e-01  
 8.371439e-11   6.278579e-04   7.496152e-01   7.496168e-01   2.951513e-01  
 1.564131e-10   1.173098e-03   7.496100e-01   7.496116e-01   2.946004e-01  
 3.018107e-10   2.263580e-03   7.495995e-01   7.496011e-01   2.935029e-01  
 5.926059e-10   4.444544e-03   7.495775e-01   7.495792e-01   2.913263e-01  
 1.174196e-09   8.806473e-03   7.495300e-01   7.495319e-01   2.870510e-01  
 2.149530e-09   1.612147e-02   7.494382e-01   7.494406e-01   2.801296e-01  
 3.149530e-09   2.362147e-02   7.493261e-01   7.493289e-01   2.733652e-01  
 4.149530e-09   3.112147e-02   7.491922e-01   7.491955e-01   2.669267e-01  
 5.149530e-09   3.862147e-02   7.490326e-01   7.490366e-01   2.607886e-01  
 6.149530e-09   4.612147e-02   7.488426e-01   7.488475e-01   2.549179e-01  
 7.149530e-09   5.362147e-02   7.486171e-01   7.486229e-01   2.492799e-01  
 8.149530e-09   6.112147e-02   7.483500e-01   7.483569e-01   2.438409e-01  
 9.149530e-09   6.862147e-02   7.480344e-01   7.480428e-01   2.385702e-01  
 1.014953e-08   7.612147e-02   7.476628e-01   7.476729e-01   2.334405e-01  
 1.114953e-08   8.362147e-02   7.472270e-01   7.472389e-01   2.284276e-01  
 1.214953e-08   9.112147e-02   7.467178e-01   7.467320e-01   2.235105e-01  
 1.314953e-08   9.862147e-02   7.461257e-01   7.461427e-01   2.186708e-01  
 1.414953e-08   1.061214e-01   7.454407e-01   7.454609e-01   2.138920e-01  
 1.514953e-08   1.136214e-01   7.446527e-01   7.446767e-01   2.091595e-01  
 1.614953e-08   1.211214e-01   7.437517e-01   7.437800e-01   2.044602e-01  
 1.714953e-08   1.286214e-01   7.427280e-01   7.427613e-01   1.997822e-01  
 1.814953e-08   1.361214e-01   7.415727e-01   7.416118e-01   1.951146e-01  
 1.914953e-08   1.436214e-01   7.402778e-01   7.403234e-01   1.904474e-01  
 2.014953e-08   1.511214e-01   7.388363e-01   7.388893e-01   1.857718e-01  
 2.114953e-08   1.586214e-01   7.372428e-01   7.373040e-01   1.810795e-01  
 2.214953e-08   1.661214e-01   7.354928e-01   7.355632e-01   1.763635e-01  
 2.314953e-08   1.736214e-01   7.335833e-01   7.336637e-01   1.716179e-01  
 2.414953e-08   1.811214e-01   7.315122e-01   7.316034e-01   1.668375e-01  
 2.514953e-08   1.886214e-01   7.292781e-01   7.293809e-01   1.620185e-01  
 2.614953e-08   1.961214e-01   7.268799e-01   7.269954e-01   1.571580e-01  
 2.714953e-08   2.036214e-01   7.243169e-01   7.244460e-01   1.522544e-01  
 2.814953e-08   2.111214e-01   7.215876e-01   7.217318e-01   1.473069e-01  
 2.914953e-08   2.186214e-01   7.186902e-01   7.188510e-01   1.423156e-01  
 3.014953e-08   2.261214e-01   7.156216e-01   7.158011e-01   1.372816e-01  
 3.114953e-08   2.336214e-01   7.123773e-01   7.125781e-01   1.322068e-01  
 3.214953e-08   2.411214e-01   7.089508e-01   7.091760e-01   1.270937e-01  
 3.314953e-08   2.486214e-01   7.053332e-01   7.055868e-01   1.219456e-01  
 3.414953e-08   2.561214e-01   7.015121e-01   7.017994e-01   1.167667e-01  
 3.514953e-08   2.636214e-01   6.974711e-01   6.977985e-01   1.115621e-01  
 3.614953e-08   2.711214e-01   6.931875e-01   6.935637e-01   1.063382e-01  
 3.714953e-08   2.786214e-01   6.886300e-01   6.890666e-01   1.011037e-01  
 3.814953e-08   2.861214e-01   6.837540e-01   6.842671e-01   9.586984e-02  
 3.914953e-08   2.936214e-01   6.784933e-01   6.791064e-01   9.065307e-02  
 4.014953e-08   3.011214e-01   6.727449e-01   6.734942e-01   8.547772e-02  
 4.114953e-08   3.086214e-01   6.663359e-01   6.672828e-01   8.038081e-02  
 4.214953e-08   3.161214e-01   6.589513e-01   6.602123e-01   7.541796e-02  
 4.314069e-08   3.235551e-01   6.500330e-01   6.518628e-01   7.070743e-02  
 4.368200e-08   3.276150e-01   6.440066e-01   6.463965e-01   6.825424e-02  
 4.414652e-08   3.310989e-01   6.377657e-01   6.409322e-01   6.622980e-02  
 4.457893e-08   3.343419e-01   6.305983e-01   6.349513e-01   6.441864e-02  
 4.491427e-08   3.368570e-01   6.237177e-01   6.295347e-01   6.306506e-02  
 4.517674e-08   3.388255e-01   6.172415e-01   6.247256e-01   6.203731e-02  
 4.541963e-08   3.406472e-01   6.101979e-01   6.197884e-01   6.111101e-02  
 4.568893e-08   3.426670e-01   6.010448e-01   6.137696e-01   6.011168e-02  
 4.596819e-08   3.447614e-01   5.899923e-01   6.069946e-01   5.910548e-02  
 4.624237e-08   3.468178e-01   5.776810e-01   5.999576e-01   5.814661e-02  
 4.647490e-08   3.485617e-01   5.662548e-01   5.938238e-01   5.735520e-02  
 4.667467e-08   3.500600e-01   5.558324e-01   5.885184e-01   5.669065e-02  
 4.687739e-08   3.515804e-01   5.447784e-01   5.831619e-01   5.603032e-02  
 4.710765e-08   3.533074e-01   5.317374e-01   5.771660e-01   5.529680e-02  
 4.736062e-08   3.552046e-01   5.169213e-01   5.707354e-01   5.451027e-02  
 4.763891e-08   3.572918e-01   5.001434e-01   5.638860e-01   5.366722e-02  
 4.796816e-08   3.597612e-01   4.797792e-01   5.561061e-01   5.269804e-02  
 4.837911e-08   3.628433e-01   4.537665e-01   5.468791e-01   5.152822e-02  
 4.889324e-08   3.666993e-01   4.205759e-01   5.360296e-01   5.012144e-02  
 4.952233e-08   3.714175e-01   3.794226e-01   5.236592e-01   4.847654e-02  
 5.022980e-08   3.767235e-01   3.330314e-01   5.107282e-01   4.671458e-02  
 5.101114e-08   3.825835e-01   2.824652e-01   4.974167e-01   4.486203e-02  
 5.178638e-08   3.883979e-01   2.339357e-01   4.850193e-01   4.310772e-02  
 5.249317e-08   3.936988e-01   1.921532e-01   4.742950e-01   4.157205e-02  
 5.309698e-08   3.982274e-01   1.595056e-01   4.655050e-01   4.030318e-02  
 5.355958e-08   4.016969e-01   1.376207e-01   4.589753e-01   3.935571e-02  
 5.388638e-08   4.041478e-01   1.245843e-01   4.544603e-01   3.869849e-02  
 5.414266e-08   4.060699e-01   1.160377e-01   4.509726e-01   3.818978e-02  
 5.442003e-08   4.081502e-01   1.084248e-01   4.472479e-01   3.764562e-02  
 5.469624e-08   4.102218e-01   1.023083e-01   4.435885e-01   3.711018e-02  
 5.493800e-08   4.120350e-01   9.790773e-02   4.404241e-01   3.664661e-02  
 5.516031e-08   4.137023e-01   9.446740e-02   4.375452e-01   3.622445e-02  
 5.540114e-08   4.155085e-01   9.124456e-02   4.344586e-01   3.577145e-02  
 5.567917e-08   4.175938e-01   8.802238e-02   4.309352e-01   3.525392e-02  
 5.599010e-08   4.199257e-01   8.489404e-02   4.270439e-01   3.468190e-02  
 5.634006e-08   4.225504e-01   8.181673e-02   4.227234e-01   3.404636e-02  
 5.675561e-08   4.256670e-01   7.860817e-02   4.176710e-01   3.330273e-02  
 5.726409e-08   4.294807e-01   7.515504e-02   4.115977e-01   3.240853e-02  
 5.788811e-08   4.341608e-01   7.141933e-02   4.042990e-01   3.133388e-02  
 5.866364e-08   4.399773e-01   6.731183e-02   3.954500e-01   3.003166e-02  
 5.965065e-08   4.473798e-01   6.267297e-02   3.845166e-01   2.842508e-02  
 6.065065e-08   4.548798e-01   5.844565e-02   3.737853e-01   2.685230e-02  
 6.165065e-08   4.623798e-01   5.456693e-02   3.633761e-01   2.533207e-02  
 6.265065e-08   4.698798e-01   5.096073e-02   3.532676e-01   2.386210e-02  
 6.365065e-08   4.773798e-01   4.757822e-02   3.434427e-01   2.244049e-02  
 6.465065e-08   4.848798e-01   4.438621e-02   3.338876e-01   2.106568e-02  
 6.565065e-08   4.923798e-01   4.136119e-02   3.245916e-01   1.973641e-02  
 6.665065e-08   4.998798e-01   3.848600e-02   3.155466e-01   1.845171e-02  
 6.765065e-08   5.073798e-01   3.574783e-02   3.067466e-01   1.721083e-02  
 6.865065e-08   5.148798e-01   3.313702e-02   2.981881e-01   1.601329e-02  
 6.965065e-08   5.223798e-01   3.064627e-02   2.898699e-01   1.485885e-02  
 7.065065e-08   5.298798e-01   2.827006e-02   2.817929e-01   1.374747e-02  
 7.165065e-08   5.373798e-01   2.600435e-02   2.739603e-01   1.267935e-02  
 7.265065e-08   5.448798e-01   2.384631e-02   2.663784e-01   1.165490e-02  
 7.365065e-08   5.523798e-01   2.179404e-02   2.590563e-01   1.067470e-02  
 7.465065e-08   5.598798e-01   1.984647e-02   2.520073e-01   9.739500e-03  
 7.565065e-08   5.673798e-01   1.800314e-02   2.452492e-01   8.850167e-03  
 7.665065e-08   5.748798e-01   1.626406e-02   2.388057e-01   8.007644e-03  
 7.765065e-08   5.823798e-01   1.462950e-02   2.327070e-01   7.212873e-03  
 7.865065e-08   5.898798e-01   1.309981e-02   2.269900e-01   6.466728e-03  
 7.965065e-08   5.973798e-01   1.167523e-02   2.216958e-01   5.769928e-03  
 8.065065e-08   6.048798e-01   1.035568e-02   2.168650e-01   5.122947e-03  
 8.165065e-08   6.123798e-01   9.140572e-03   2.125285e-01   4.525931e-03  
 8.265065e-08   6.198798e-01   8.028624e-03   2.086981e-01   3.978621e-03  
 8.365065e-08   6.273798e-01   7.017771e-03   2.053613e-01   3.480301e-03  
 8.465065e-08   6.348798e-01   6.105065e-03   2.024826e-01   3.029763e-03  
 8.565065e-08   6.423798e-01   5.286663e-03   2.000118e-01   2.625308e-03  
 8.665065e-08   6.498798e-01   4.557885e-03   1.978930e-01   2.264780e-03  
 8.765065e-08   6.573798e-01   3.913315e-03   1.960720e-01   1.945626e-03  
 8.865065e-08   6.648798e-01   3.346963e-03   1.945005e-01   1.664978e-03  
 8.965065e-08   6.723798e-01   2.852446e-03   1.931372e-01   1.419747e-03  
 9.065065e-08   6.798798e-01   2.423181e-03   1.919475e-01   1.206732e-03  
 9.165065e-08   6.873798e-01   2.052577e-03   1.909035e-01   1.022710e-03  
 9.265065e-08   6.948798e-01   1.734202e-03   1.899819e-01   8.645256e-04  
 9.365065e-08   7.023798e-01   1.461915e-03   1.891639e-01   7.291604e-04  
 9.465065e-08   7.098798e-01   1.229971e-03   1.884340e-01   6.137853e-04  
 9.565065e-08   7.173798e-01   1.033088e-03   1.877795e-01   5.157950e-04  
 9.665065e-08   7.248798e-01   8.664798e-04   1.871899e-01   4.328267e-04  
 9.765065e-08   7.323798e-01   7.258679e-04   1.866563e-01   3.627658e-04  
 9.865065e-08   7.398798e-01   6.074698e-04   1.861716e-01   3.037411e-04  
 9.932532e-08   7.449399e-01   5.384522e-04   1.858689e-01   2.693184e-04  
 1.000000e-07   7.500000e-01   4.771257e-04   1.855840e-01   2.387208e-04  
