
time (s)       getData("/nvtc getData("/SNMh getData("/SNMr getData("/SNMw

 0.000000e+00   0.000000e+00   6.496787e-01   6.496801e-01   2.509961e-01  
 1.792033e-11   1.164821e-04   6.496800e-01   6.496814e-01   2.508533e-01  
 3.133146e-11   2.036545e-04   6.496794e-01   6.496807e-01   2.507350e-01  
 5.058614e-11   3.288099e-04   6.496784e-01   6.496797e-01   2.505643e-01  
 8.909550e-11   5.791207e-04   6.496764e-01   6.496777e-01   2.502232e-01  
 1.661142e-10   1.079742e-03   6.496723e-01   6.496737e-01   2.495431e-01  
 3.201516e-10   2.080985e-03   6.496641e-01   6.496655e-01   2.481912e-01  
 6.282264e-10   4.083472e-03   6.496470e-01   6.496485e-01   2.455224e-01  
 1.244376e-09   8.088444e-03   6.496101e-01   6.496118e-01   2.403342e-01  
 2.033059e-09   1.321488e-02   6.495574e-01   6.495593e-01   2.340046e-01  
 2.882413e-09   1.873568e-02   6.494928e-01   6.494950e-01   2.275934e-01  
 3.778027e-09   2.455717e-02   6.494147e-01   6.494172e-01   2.212798e-01  
 4.711833e-09   3.062691e-02   6.493206e-01   6.493235e-01   2.151516e-01  
 5.684389e-09   3.694853e-02   6.492070e-01   6.492104e-01   2.092085e-01  
 6.684389e-09   4.344853e-02   6.490709e-01   6.490749e-01   2.034999e-01  
 7.684389e-09   4.994853e-02   6.489122e-01   6.489169e-01   1.981346e-01  
 8.684389e-09   5.644853e-02   6.487275e-01   6.487330e-01   1.930548e-01  
 9.684389e-09   6.294853e-02   6.485128e-01   6.485193e-01   1.882114e-01  
 1.068438e-08   6.944853e-02   6.482638e-01   6.482714e-01   1.835637e-01  
 1.168438e-08   7.594853e-02   6.479755e-01   6.479844e-01   1.790781e-01  
 1.268438e-08   8.244853e-02   6.476425e-01   6.476530e-01   1.747270e-01  
 1.368438e-08   8.894853e-02   6.472591e-01   6.472714e-01   1.704878e-01  
 1.468438e-08   9.544853e-02   6.468187e-01   6.468332e-01   1.663414e-01  
 1.568438e-08   1.019485e-01   6.463148e-01   6.463317e-01   1.622718e-01  
 1.668438e-08   1.084485e-01   6.457401e-01   6.457598e-01   1.582655e-01  
 1.768438e-08   1.149485e-01   6.450874e-01   6.451103e-01   1.543107e-01  
 1.868438e-08   1.214485e-01   6.443489e-01   6.443757e-01   1.503970e-01  
 1.968438e-08   1.279485e-01   6.435173e-01   6.435483e-01   1.465153e-01  
 2.068438e-08   1.344485e-01   6.425850e-01   6.426210e-01   1.426574e-01  
 2.168438e-08   1.409485e-01   6.415448e-01   6.415864e-01   1.388160e-01  
 2.268438e-08   1.474485e-01   6.403897e-01   6.404376e-01   1.349844e-01  
 2.368438e-08   1.539485e-01   6.391132e-01   6.391683e-01   1.311567e-01  
 2.468438e-08   1.604485e-01   6.377092e-01   6.377723e-01   1.273275e-01  
 2.568438e-08   1.669485e-01   6.361721e-01   6.362440e-01   1.234922e-01  
 2.668438e-08   1.734485e-01   6.344965e-01   6.345780e-01   1.196466e-01  
 2.768438e-08   1.799485e-01   6.326772e-01   6.327694e-01   1.157876e-01  
 2.868438e-08   1.864485e-01   6.307091e-01   6.308129e-01   1.119122e-01  
 2.968438e-08   1.929485e-01   6.285869e-01   6.287034e-01   1.080187e-01  
 3.068438e-08   1.994485e-01   6.263047e-01   6.264351e-01   1.041057e-01  
 3.168438e-08   2.059485e-01   6.238555e-01   6.240013e-01   1.001727e-01  
 3.268438e-08   2.124485e-01   6.212312e-01   6.213942e-01   9.622023e-02  
 3.368438e-08   2.189485e-01   6.184212e-01   6.186038e-01   9.224919e-02  
 3.468438e-08   2.254485e-01   6.154123e-01   6.156175e-01   8.826175e-02  
 3.568438e-08   2.319485e-01   6.121868e-01   6.124185e-01   8.426112e-02  
 3.668438e-08   2.384485e-01   6.087209e-01   6.089846e-01   8.025198e-02  
 3.768438e-08   2.449485e-01   6.049817e-01   6.052846e-01   7.624106e-02  
 3.868438e-08   2.514485e-01   6.009215e-01   6.012742e-01   7.223801e-02  
 3.968438e-08   2.579485e-01   5.964686e-01   5.968870e-01   6.825689e-02  
 4.068438e-08   2.644485e-01   5.915085e-01   5.920182e-01   6.431829e-02  
 4.168438e-08   2.709485e-01   5.858436e-01   5.864907e-01   6.045195e-02  
 4.268438e-08   2.774485e-01   5.790989e-01   5.799777e-01   5.669877e-02  
 4.358767e-08   2.833199e-01   5.714188e-01   5.726998e-01   5.344775e-02  
 4.405158e-08   2.863352e-01   5.664625e-01   5.681184e-01   5.184268e-02  
 4.444668e-08   2.889034e-01   5.613857e-01   5.635428e-01   5.051492e-02  
 4.483629e-08   2.914359e-01   5.552524e-01   5.581984e-01   4.924335e-02  
 4.514209e-08   2.934236e-01   5.493389e-01   5.532520e-01   4.827258e-02  
 4.538333e-08   2.949917e-01   5.437847e-01   5.487906e-01   4.752407e-02  
 4.561382e-08   2.964898e-01   5.376034e-01   5.440232e-01   4.682329e-02  
 4.588475e-08   2.982508e-01   5.291242e-01   5.377889e-01   4.601754e-02  
 4.615767e-08   3.000248e-01   5.192323e-01   5.309039e-01   4.522537e-02  
 4.642605e-08   3.017693e-01   5.082917e-01   5.237116e-01   4.446524e-02  
 4.664006e-08   3.031604e-01   4.988345e-01   5.178175e-01   4.387226e-02  
 4.682322e-08   3.043509e-01   4.903141e-01   5.127470e-01   4.337387e-02  
 4.701594e-08   3.056036e-01   4.809969e-01   5.074488e-01   4.285835e-02  
 4.723706e-08   3.070409e-01   4.699401e-01   5.014773e-01   4.227778e-02  
 4.747453e-08   3.085844e-01   4.577126e-01   4.952455e-01   4.166698e-02  
 4.773563e-08   3.102816e-01   4.439300e-01   4.886496e-01   4.101006e-02  
 4.805305e-08   3.123448e-01   4.267986e-01   4.810148e-01   4.023126e-02  
 4.846641e-08   3.150316e-01   4.040234e-01   4.716933e-01   3.924809e-02  
 4.896454e-08   3.182695e-01   3.760841e-01   4.613110e-01   3.810675e-02  
 4.950981e-08   3.218138e-01   3.451243e-01   4.508616e-01   3.690753e-02  
 5.010808e-08   3.257025e-01   3.109740e-01   4.403038e-01   3.564652e-02  
 5.077235e-08   3.300202e-01   2.731673e-01   4.294788e-01   3.430692e-02  
 5.151054e-08   3.348185e-01   2.317475e-01   4.183328e-01   3.288509e-02  
 5.233392e-08   3.401704e-01   1.870196e-01   4.067724e-01   3.137307e-02  
 5.310811e-08   3.452027e-01   1.475050e-01   3.965766e-01   3.001481e-02  
 5.351905e-08   3.478738e-01   1.282811e-01   3.913883e-01   2.931665e-02  
 5.387322e-08   3.501759e-01   1.133301e-01   3.870271e-01   2.872682e-02  
 5.418331e-08   3.521915e-01   1.019703e-01   3.832863e-01   2.821907e-02  
 5.444071e-08   3.538646e-01   9.401310e-02   3.802330e-01   2.780354e-02  
 5.470647e-08   3.555920e-01   8.721773e-02   3.771270e-01   2.737998e-02  
 5.497212e-08   3.573188e-01   8.170060e-02   3.740672e-01   2.696198e-02  
 5.521618e-08   3.589052e-01   7.754046e-02   3.712940e-01   2.658262e-02  
 5.544142e-08   3.603692e-01   7.430194e-02   3.687655e-01   2.623636e-02  
 5.567833e-08   3.619091e-01   7.137489e-02   3.661366e-01   2.587606e-02  
 5.594884e-08   3.636674e-01   6.849297e-02   3.631717e-01   2.546942e-02  
 5.625490e-08   3.656568e-01   6.567816e-02   3.598627e-01   2.501534e-02  
 5.660032e-08   3.679020e-01   6.292277e-02   3.561834e-01   2.451031e-02  
 5.700687e-08   3.705446e-01   6.009826e-02   3.519242e-01   2.392571e-02  
 5.750212e-08   3.737637e-01   5.709798e-02   3.468343e-01   2.322744e-02  
 5.811081e-08   3.777202e-01   5.387938e-02   3.407171e-01   2.238934e-02  
 5.886673e-08   3.826337e-01   5.038338e-02   3.333176e-01   2.137806e-02  
 5.982531e-08   3.888645e-01   4.649965e-02   3.242231e-01   2.014054e-02  
 6.082531e-08   3.953645e-01   4.290796e-02   3.150496e-01   1.890030e-02  
 6.182531e-08   4.018645e-01   3.965982e-02   3.061699e-01   1.770940e-02  
 6.282531e-08   4.083645e-01   3.667913e-02   2.975619e-01   1.656575e-02  
 6.382531e-08   4.148645e-01   3.391749e-02   2.892078e-01   1.546762e-02  
 6.482531e-08   4.213645e-01   3.134220e-02   2.810931e-01   1.441363e-02  
 6.582531e-08   4.278645e-01   2.893018e-02   2.732064e-01   1.340267e-02  
 6.682531e-08   4.343645e-01   2.666460e-02   2.655385e-01   1.243390e-02  
 6.782531e-08   4.408645e-01   2.453291e-02   2.580823e-01   1.150667e-02  
 6.882531e-08   4.473645e-01   2.252554e-02   2.508328e-01   1.062056e-02  
 6.982531e-08   4.538645e-01   2.063510e-02   2.437863e-01   9.775290e-03  
 7.082531e-08   4.603645e-01   1.885581e-02   2.369412e-01   8.970719e-03  
 7.182531e-08   4.668645e-01   1.718309e-02   2.302971e-01   8.206802e-03  
 7.282531e-08   4.733645e-01   1.561325e-02   2.238554e-01   7.483555e-03  
 7.382531e-08   4.798645e-01   1.414323e-02   2.176195e-01   6.801004e-03  
 7.482531e-08   4.863645e-01   1.277039e-02   2.115949e-01   6.159151e-03  
 7.582531e-08   4.928645e-01   1.149233e-02   2.057898e-01   5.557919e-03  
 7.682531e-08   4.993645e-01   1.030674e-02   2.002158e-01   4.997111e-03  
 7.782531e-08   5.058645e-01   9.211228e-03   1.948886e-01   4.476363e-03  
 7.882531e-08   5.123645e-01   8.203240e-03   1.898285e-01   3.995114e-03  
 7.982531e-08   5.188645e-01   7.279958e-03   1.850610e-01   3.552571e-03  
 8.082531e-08   5.253645e-01   6.438239e-03   1.806152e-01   3.147696e-03  
 8.182531e-08   5.318645e-01   5.674586e-03   1.765208e-01   2.779204e-03  
 8.282531e-08   5.383645e-01   4.985153e-03   1.728027e-01   2.445570e-03  
 8.382531e-08   5.448645e-01   4.365771e-03   1.694748e-01   2.145054e-03  
 8.482531e-08   5.513645e-01   3.812003e-03   1.665346e-01   1.875734e-03  
 8.582531e-08   5.578645e-01   3.319216e-03   1.639629e-01   1.635549e-03  
 8.682531e-08   5.643645e-01   2.882665e-03   1.617275e-01   1.422346e-03  
 8.782531e-08   5.708645e-01   2.497581e-03   1.597886e-01   1.233927e-03  
 8.882531e-08   5.773645e-01   2.159253e-03   1.581053e-01   1.068095e-03  
 8.982531e-08   5.838645e-01   1.863103e-03   1.566389e-01   9.226996e-04  
 9.082531e-08   5.903645e-01   1.604755e-03   1.553555e-01   7.956660e-04  
 9.182531e-08   5.968645e-01   1.380081e-03   1.542260e-01   6.850277e-04  
 9.282531e-08   6.033645e-01   1.185236e-03   1.532261e-01   5.889439e-04  
 9.382531e-08   6.098645e-01   1.016682e-03   1.523358e-01   5.057135e-04  
 9.482531e-08   6.163645e-01   8.711957e-04   1.515386e-01   4.337809e-04  
 9.582531e-08   6.228645e-01   7.458646e-04   1.508210e-01   3.717376e-04  
 9.682531e-08   6.293645e-01   6.380828e-04   1.501719e-01   3.183183e-04  
 9.782531e-08   6.358645e-01   5.455321e-04   1.495820e-01   2.723956e-04  
 9.882531e-08   6.423645e-01   4.661638e-04   1.490436e-01   2.329705e-04  
 9.941265e-08   6.461822e-01   4.249588e-04   1.487487e-01   2.124850e-04  
 1.000000e-07   6.500000e-01   3.873480e-04   1.484682e-01   1.937749e-04  
