
time (s)       getData("/nvtc getData("/SNMh getData("/SNMr getData("/SNMw

 0.000000e+00   0.000000e+00   7.599737e-01   7.599737e-01   2.609468e-01  
 1.665817e-11   1.266021e-04   7.599759e-01   7.599759e-01   2.607768e-01  
 2.900046e-11   2.204035e-04   7.599759e-01   7.599759e-01   2.606417e-01  
 4.707880e-11   3.577989e-04   7.599757e-01   7.599757e-01   2.604431e-01  
 8.323548e-11   6.325897e-04   7.599755e-01   7.599755e-01   2.600466e-01  
 1.555488e-10   1.182171e-03   7.599750e-01   7.599751e-01   2.592573e-01  
 3.001755e-10   2.281334e-03   7.599741e-01   7.599741e-01   2.576933e-01  
 5.894290e-10   4.479660e-03   7.599721e-01   7.599721e-01   2.546253e-01  
 1.097763e-09   8.343003e-03   7.599682e-01   7.599683e-01   2.494328e-01  
 1.707809e-09   1.297935e-02   7.599630e-01   7.599630e-01   2.435445e-01  
 2.364970e-09   1.797377e-02   7.599563e-01   7.599564e-01   2.376184e-01  
 3.064198e-09   2.328790e-02   7.599481e-01   7.599481e-01   2.317671e-01  
 3.796953e-09   2.885685e-02   7.599378e-01   7.599379e-01   2.260965e-01  
 4.564343e-09   3.468900e-02   7.599250e-01   7.599250e-01   2.206057e-01  
 5.377520e-09   4.086915e-02   7.599087e-01   7.599087e-01   2.152155e-01  
 6.249861e-09   4.749894e-02   7.598873e-01   7.598873e-01   2.098421e-01  
 7.196568e-09   5.469392e-02   7.598585e-01   7.598585e-01   2.044014e-01  
 8.196568e-09   6.229392e-02   7.598203e-01   7.598204e-01   1.990090e-01  
 9.196568e-09   6.989392e-02   7.597721e-01   7.597722e-01   1.939073e-01  
 1.019656e-08   7.749392e-02   7.597113e-01   7.597114e-01   1.890381e-01  
 1.119656e-08   8.509392e-02   7.596346e-01   7.596347e-01   1.843569e-01  
 1.219656e-08   9.269392e-02   7.595382e-01   7.595383e-01   1.798292e-01  
 1.319656e-08   1.002939e-01   7.594171e-01   7.594172e-01   1.754278e-01  
 1.419656e-08   1.078939e-01   7.592653e-01   7.592655e-01   1.711314e-01  
 1.519656e-08   1.154939e-01   7.590759e-01   7.590761e-01   1.669226e-01  
 1.619656e-08   1.230939e-01   7.588401e-01   7.588405e-01   1.627868e-01  
 1.719656e-08   1.306939e-01   7.585482e-01   7.585486e-01   1.587120e-01  
 1.819656e-08   1.382939e-01   7.581886e-01   7.581891e-01   1.546875e-01  
 1.919656e-08   1.458939e-01   7.577484e-01   7.577491e-01   1.507037e-01  
 2.019656e-08   1.534939e-01   7.572136e-01   7.572144e-01   1.467517e-01  
 2.119656e-08   1.610939e-01   7.565694e-01   7.565704e-01   1.428229e-01  
 2.219656e-08   1.686939e-01   7.558006e-01   7.558019e-01   1.389091e-01  
 2.319656e-08   1.762939e-01   7.548925e-01   7.548942e-01   1.350019e-01  
 2.419656e-08   1.838939e-01   7.538318e-01   7.538338e-01   1.310930e-01  
 2.519656e-08   1.914939e-01   7.526066e-01   7.526090e-01   1.271742e-01  
 2.619656e-08   1.990939e-01   7.512074e-01   7.512103e-01   1.232376e-01  
 2.719656e-08   2.066939e-01   7.496273e-01   7.496307e-01   1.192755e-01  
 2.819656e-08   2.142939e-01   7.478612e-01   7.478653e-01   1.152812e-01  
 2.919656e-08   2.218939e-01   7.459061e-01   7.459108e-01   1.112488e-01  
 3.019656e-08   2.294939e-01   7.437594e-01   7.437649e-01   1.071738e-01  
 3.119656e-08   2.370939e-01   7.414186e-01   7.414250e-01   1.030532e-01  
 3.219656e-08   2.446939e-01   7.388800e-01   7.388874e-01   9.888526e-02  
 3.319656e-08   2.522939e-01   7.361376e-01   7.361459e-01   9.466989e-02  
 3.419656e-08   2.598939e-01   7.331815e-01   7.331911e-01   9.040836e-02  
 3.519656e-08   2.674939e-01   7.299970e-01   7.300081e-01   8.610330e-02  
 3.619656e-08   2.750939e-01   7.265622e-01   7.265751e-01   8.175862e-02  
 3.719656e-08   2.826939e-01   7.228447e-01   7.228599e-01   7.737975e-02  
 3.819656e-08   2.902939e-01   7.187956e-01   7.188137e-01   7.297403e-02  
 3.919656e-08   2.978939e-01   7.143379e-01   7.143602e-01   6.855173e-02  
 4.019656e-08   3.054939e-01   7.093422e-01   7.093704e-01   6.412800e-02  
 4.119656e-08   3.130939e-01   7.035670e-01   7.036049e-01   5.972652e-02  
 4.219656e-08   3.206939e-01   6.964935e-01   6.965500e-01   5.538589e-02  
 4.270300e-08   3.245428e-01   6.920356e-01   6.921105e-01   5.322959e-02  
 4.313703e-08   3.278414e-01   6.874090e-01   6.875112e-01   5.141467e-02  
 4.352944e-08   3.308237e-01   6.821893e-01   6.823368e-01   4.980714e-02  
 4.380867e-08   3.329459e-01   6.775266e-01   6.777324e-01   4.868622e-02  
 4.400478e-08   3.344363e-01   6.735613e-01   6.738332e-01   4.791189e-02  
 4.416294e-08   3.356383e-01   6.698136e-01   6.701639e-01   4.729574e-02  
 4.430705e-08   3.367336e-01   6.658715e-01   6.663230e-01   4.674123e-02  
 4.444059e-08   3.377484e-01   6.616926e-01   6.622741e-01   4.623354e-02  
 4.457042e-08   3.387351e-01   6.570870e-01   6.578405e-01   4.574579e-02  
 4.471536e-08   3.398367e-01   6.512710e-01   6.522883e-01   4.520830e-02  
 4.490409e-08   3.412711e-01   6.426305e-01   6.441470e-01   4.451998e-02  
 4.509273e-08   3.427048e-01   6.328851e-01   6.351454e-01   4.384536e-02  
 4.522810e-08   3.437335e-01   6.253082e-01   6.283058e-01   4.336971e-02  
 4.533567e-08   3.445511e-01   6.189946e-01   6.227317e-01   4.299682e-02  
 4.544613e-08   3.453906e-01   6.122808e-01   6.169462e-01   4.261865e-02  
 4.556904e-08   3.463247e-01   6.045746e-01   6.105063e-01   4.220356e-02  
 4.569060e-08   3.472485e-01   5.967437e-01   6.042032e-01   4.179891e-02  
 4.581193e-08   3.481707e-01   5.887485e-01   5.980367e-01   4.140084e-02  
 4.594471e-08   3.491798e-01   5.798220e-01   5.914876e-01   4.097186e-02  
 4.609704e-08   3.503375e-01   5.693849e-01   5.842858e-01   4.048824e-02  
 4.627340e-08   3.516779e-01   5.570749e-01   5.764103e-01   3.993952e-02  
 4.649235e-08   3.533419e-01   5.415058e-01   5.673450e-01   3.927472e-02  
 4.676143e-08   3.553868e-01   5.220092e-01   5.572300e-01   3.848190e-02  
 4.705293e-08   3.576022e-01   5.005188e-01   5.473922e-01   3.765185e-02  
 4.736785e-08   3.599956e-01   4.769591e-01   5.378438e-01   3.678698e-02  
 4.771036e-08   3.625987e-01   4.510265e-01   5.284717e-01   3.588147e-02  
 4.809592e-08   3.655290e-01   4.215669e-01   5.189040e-01   3.490260e-02  
 4.853280e-08   3.688493e-01   3.879938e-01   5.090267e-01   3.384049e-02  
 4.902848e-08   3.726165e-01   3.498674e-01   4.987643e-01   3.268984e-02  
 4.959435e-08   3.769171e-01   3.066030e-01   4.879807e-01   3.143881e-02  
 5.024224e-08   3.818410e-01   2.578811e-01   4.765638e-01   3.007805e-02  
 5.098370e-08   3.874761e-01   2.039772e-01   4.644334e-01   2.860204e-02  
 5.165772e-08   3.925986e-01   1.576918e-01   4.540895e-01   2.732578e-02  
 5.222477e-08   3.969082e-01   1.220660e-01   4.458011e-01   2.629487e-02  
 5.247028e-08   3.987741e-01   1.082510e-01   4.423154e-01   2.585970e-02  
 5.267794e-08   4.003524e-01   9.776927e-02   4.394117e-01   2.549661e-02  
 5.287966e-08   4.018854e-01   8.896531e-02   4.366284e-01   2.514815e-02  
 5.306045e-08   4.032594e-01   8.237872e-02   4.341639e-01   2.483931e-02  
 5.325890e-08   4.047676e-01   7.651979e-02   4.314899e-01   2.450397e-02  
 5.346128e-08   4.063057e-01   7.178585e-02   4.287952e-01   2.416582e-02  
 5.362350e-08   4.075386e-01   6.869566e-02   4.266581e-01   2.389752e-02  
 5.377150e-08   4.086634e-01   6.629331e-02   4.247254e-01   2.365481e-02  
 5.394010e-08   4.099447e-01   6.393018e-02   4.225428e-01   2.338069e-02  
 5.413932e-08   4.114588e-01   6.153016e-02   4.199896e-01   2.305998e-02  
 5.435637e-08   4.131084e-01   5.927757e-02   4.172383e-01   2.271441e-02  
 5.459850e-08   4.149486e-01   5.709406e-02   4.142053e-01   2.233353e-02  
 5.489020e-08   4.171655e-01   5.480101e-02   4.105998e-01   2.188096e-02  
 5.524944e-08   4.198957e-01   5.234163e-02   4.062290e-01   2.133277e-02  
 5.568743e-08   4.232244e-01   4.972688e-02   4.009983e-01   2.067764e-02  
 5.623033e-08   4.273505e-01   4.689083e-02   3.946546e-01   1.988489e-02  
 5.692406e-08   4.326229e-01   4.371227e-02   3.867577e-01   1.890159e-02  
 5.782439e-08   4.394654e-01   4.009022e-02   3.768290e-01   1.767242e-02  
 5.882439e-08   4.470654e-01   3.652523e-02   3.661850e-01   1.636573e-02  
 5.982439e-08   4.546654e-01   3.330733e-02   3.559074e-01   1.511710e-02  
 6.082439e-08   4.622654e-01   3.035677e-02   3.459650e-01   1.392356e-02  
 6.182439e-08   4.698654e-01   2.762500e-02   3.363333e-01   1.278274e-02  
 6.282439e-08   4.774654e-01   2.508025e-02   3.269929e-01   1.169284e-02  
 6.382439e-08   4.850654e-01   2.270077e-02   3.179289e-01   1.065259e-02  
 6.482439e-08   4.926654e-01   2.047140e-02   3.091299e-01   9.661232e-03  
 6.582439e-08   5.002654e-01   1.838154e-02   3.005874e-01   8.718503e-03  
 6.682439e-08   5.078654e-01   1.642399e-02   2.922957e-01   7.824638e-03  
 6.782439e-08   5.154654e-01   1.459411e-02   2.842511e-01   6.980310e-03  
 6.882439e-08   5.230654e-01   1.288923e-02   2.764512e-01   6.186567e-03  
 6.982439e-08   5.306654e-01   1.130810e-02   2.688949e-01   5.444721e-03  
 7.082439e-08   5.382654e-01   9.850352e-03   2.615812e-01   4.756187e-03  
 7.182439e-08   5.458654e-01   8.515975e-03   2.545093e-01   4.122290e-03  
 7.282439e-08   5.534654e-01   7.304741e-03   2.476778e-01   3.544035e-03  
 7.382439e-08   5.610654e-01   6.215666e-03   2.410849e-01   3.021878e-03  
 7.482439e-08   5.686654e-01   5.246541e-03   2.347282e-01   2.555521e-03  
 7.582439e-08   5.762654e-01   4.393614e-03   2.286050e-01   2.143776e-03  
 7.682439e-08   5.838654e-01   3.651440e-03   2.227134e-01   1.784509e-03  
 7.782439e-08   5.914654e-01   3.012957e-03   2.170533e-01   1.474688e-03  
 7.882439e-08   5.990654e-01   2.469748e-03   2.116276e-01   1.210534e-03  
 7.982439e-08   6.066654e-01   2.012442e-03   2.064437e-01   9.877248e-04  
 8.082439e-08   6.142654e-01   1.631194e-03   2.015158e-01   8.016454e-04  
 8.182439e-08   6.218654e-01   1.316144e-03   1.968657e-01   6.476256e-04  
 8.282439e-08   6.294654e-01   1.057822e-03   1.925230e-01   5.211455e-04  
 8.382439e-08   6.370654e-01   8.474447e-04   1.885229e-01   4.179906e-04  
 8.482439e-08   6.446654e-01   6.770998e-04   1.848998e-01   3.343499e-04  
 8.582439e-08   6.522654e-01   5.398392e-04   1.816783e-01   2.668646e-04  
 8.682439e-08   6.598654e-01   4.296831e-04   1.788637e-01   2.126367e-04  
 8.782439e-08   6.674654e-01   3.415720e-04   1.764389e-01   1.692080e-04  
 8.882439e-08   6.750654e-01   2.712840e-04   1.743681e-01   1.345234e-04  
 8.982439e-08   6.826654e-01   2.153359e-04   1.726051e-01   1.068837e-04  
 9.082439e-08   6.902654e-01   1.708797e-04   1.711020e-01   8.489754e-05  
 9.182439e-08   6.978654e-01   1.356040e-04   1.698144e-01   6.743344e-05  
 9.282439e-08   7.054654e-01   1.076436e-04   1.687042e-01   5.357717e-05  
 9.382439e-08   7.130654e-01   8.550070e-05   1.677396e-01   4.259340e-05  
 9.482439e-08   7.206654e-01   6.797668e-05   1.668952e-01   3.389288e-05  
 9.582439e-08   7.282654e-01   5.411536e-05   1.661505e-01   2.700489e-05  
 9.682439e-08   7.358654e-01   4.315566e-05   1.654891e-01   2.155429e-05  
 9.782439e-08   7.434654e-01   3.449288e-05   1.648980e-01   1.724264e-05  
 9.882439e-08   7.510654e-01   2.764728e-05   1.643665e-01   1.383292e-05  
 9.941219e-08   7.555327e-01   2.431489e-05   1.640784e-01   1.217215e-05  
 1.000000e-07   7.600000e-01   2.141363e-05   1.638065e-01   1.072566e-05  
