
time (s)       getData("/nvtc getData("/SNMh getData("/SNMr getData("/SNMw

 0.000000e+00   0.000000e+00   1.209932e+00   1.209932e+00   4.860551e-01  
 1.347529e-11   1.630510e-04   1.209935e+00   1.209935e+00   4.859510e-01  
 2.313987e-11   2.799924e-04   1.209935e+00   1.209935e+00   4.858709e-01  
 3.817883e-11   4.619639e-04   1.209934e+00   1.209934e+00   4.857459e-01  
 6.825676e-11   8.259068e-04   1.209934e+00   1.209934e+00   4.854958e-01  
 1.284126e-10   1.553792e-03   1.209932e+00   1.209932e+00   4.849960e-01  
 1.907717e-10   2.308337e-03   1.209931e+00   1.209931e+00   4.844782e-01  
 2.588699e-10   3.132326e-03   1.209929e+00   1.209929e+00   4.839131e-01  
 3.285029e-10   3.974885e-03   1.209927e+00   1.209927e+00   4.833357e-01  
 4.007224e-10   4.848741e-03   1.209925e+00   1.209925e+00   4.827374e-01  
 4.749954e-10   5.747444e-03   1.209923e+00   1.209923e+00   4.821226e-01  
 5.516504e-10   6.674970e-03   1.209920e+00   1.209920e+00   4.814888e-01  
 6.307283e-10   7.631812e-03   1.209918e+00   1.209918e+00   4.808355e-01  
 7.124260e-10   8.620355e-03   1.209915e+00   1.209915e+00   4.801613e-01  
 7.969026e-10   9.642521e-03   1.209913e+00   1.209913e+00   4.794650e-01  
 8.843595e-10   1.070075e-02   1.209910e+00   1.209910e+00   4.787449e-01  
 9.750100e-10   1.179762e-02   1.209907e+00   1.209907e+00   4.779996e-01  
 1.069095e-09   1.293605e-02   1.209903e+00   1.209903e+00   4.772270e-01  
 1.166883e-09   1.411929e-02   1.209900e+00   1.209900e+00   4.764253e-01  
 1.268675e-09   1.535097e-02   1.209896e+00   1.209896e+00   4.755920e-01  
 1.361600e-09   1.647536e-02   1.209892e+00   1.209892e+00   4.748324e-01  
 1.473566e-09   1.783015e-02   1.209887e+00   1.209887e+00   4.739188e-01  
 1.575414e-09   1.906251e-02   1.209883e+00   1.209883e+00   4.730892e-01  
 1.675449e-09   2.027293e-02   1.209879e+00   1.209879e+00   4.722758e-01  
 1.780529e-09   2.154441e-02   1.209874e+00   1.209874e+00   4.714229e-01  
 1.888972e-09   2.285656e-02   1.209868e+00   1.209869e+00   4.705444e-01  
 2.001003e-09   2.421213e-02   1.209863e+00   1.209863e+00   4.696386e-01  
 2.117854e-09   2.562604e-02   1.209857e+00   1.209857e+00   4.686958e-01  
 2.239951e-09   2.710340e-02   1.209850e+00   1.209850e+00   4.677129e-01  
 2.367698e-09   2.864915e-02   1.209843e+00   1.209843e+00   4.666869e-01  
 2.501723e-09   3.027085e-02   1.209835e+00   1.209835e+00   4.656132e-01  
 2.642675e-09   3.197637e-02   1.209826e+00   1.209826e+00   4.644870e-01  
 2.791264e-09   3.377430e-02   1.209816e+00   1.209816e+00   4.633032e-01  
 2.948328e-09   3.567477e-02   1.209805e+00   1.209806e+00   4.620557e-01  
 3.114843e-09   3.768960e-02   1.209793e+00   1.209793e+00   4.607374e-01  
 3.291950e-09   3.983259e-02   1.209779e+00   1.209779e+00   4.593401e-01  
 3.481002e-09   4.212013e-02   1.209764e+00   1.209764e+00   4.578542e-01  
 3.683620e-09   4.457180e-02   1.209745e+00   1.209745e+00   4.562681e-01  
 3.901761e-09   4.721131e-02   1.209724e+00   1.209724e+00   4.545678e-01  
 4.137820e-09   5.006762e-02   1.209699e+00   1.209700e+00   4.527366e-01  
 4.394765e-09   5.317666e-02   1.209670e+00   1.209670e+00   4.507535e-01  
 4.676328e-09   5.658357e-02   1.209635e+00   1.209635e+00   4.485924e-01  
 4.987283e-09   6.034612e-02   1.209591e+00   1.209591e+00   4.462201e-01  
 5.333851e-09   6.453960e-02   1.209537e+00   1.209537e+00   4.435936e-01  
 5.724331e-09   6.926441e-02   1.209467e+00   1.209467e+00   4.406559e-01  
 6.170084e-09   7.465802e-02   1.209375e+00   1.209375e+00   4.373291e-01  
 6.687163e-09   8.091467e-02   1.209249e+00   1.209249e+00   4.335041e-01  
 7.299127e-09   8.831943e-02   1.209067e+00   1.209068e+00   4.290214e-01  
 8.042216e-09   9.731081e-02   1.208791e+00   1.208791e+00   4.236365e-01  
 8.975566e-09   1.086043e-01   1.208334e+00   1.208335e+00   4.169505e-01  
 9.975566e-09   1.207043e-01   1.207671e+00   1.207671e+00   4.098626e-01  
 1.097556e-08   1.328043e-01   1.206778e+00   1.206779e+00   4.028271e-01  
 1.197556e-08   1.449043e-01   1.205602e+00   1.205603e+00   3.958150e-01  
 1.297556e-08   1.570043e-01   1.204094e+00   1.204096e+00   3.887935e-01  
 1.397556e-08   1.691043e-01   1.202214e+00   1.202216e+00   3.817275e-01  
 1.497556e-08   1.812043e-01   1.199942e+00   1.199945e+00   3.745798e-01  
 1.597556e-08   1.933043e-01   1.197277e+00   1.197281e+00   3.673141e-01  
 1.697556e-08   2.054043e-01   1.194240e+00   1.194245e+00   3.598982e-01  
 1.797556e-08   2.175043e-01   1.190863e+00   1.190869e+00   3.523077e-01  
 1.897556e-08   2.296043e-01   1.187184e+00   1.187191e+00   3.445278e-01  
 1.997556e-08   2.417043e-01   1.183238e+00   1.183246e+00   3.365531e-01  
 2.097556e-08   2.538043e-01   1.179051e+00   1.179061e+00   3.283857e-01  
 2.197556e-08   2.659043e-01   1.174642e+00   1.174653e+00   3.200320e-01  
 2.297556e-08   2.780043e-01   1.170019e+00   1.170032e+00   3.115000e-01  
 2.397556e-08   2.901043e-01   1.165183e+00   1.165198e+00   3.027979e-01  
 2.497556e-08   3.022043e-01   1.160131e+00   1.160150e+00   2.939334e-01  
 2.597556e-08   3.143043e-01   1.154859e+00   1.154881e+00   2.849137e-01  
 2.697556e-08   3.264043e-01   1.149359e+00   1.149386e+00   2.757464e-01  
 2.797556e-08   3.385043e-01   1.143626e+00   1.143659e+00   2.664395e-01  
 2.897556e-08   3.506043e-01   1.137654e+00   1.137695e+00   2.570022e-01  
 2.997556e-08   3.627043e-01   1.131438e+00   1.131488e+00   2.474448e-01  
 3.097556e-08   3.748043e-01   1.124972e+00   1.125035e+00   2.377790e-01  
 3.197556e-08   3.869043e-01   1.118251e+00   1.118331e+00   2.280176e-01  
 3.297556e-08   3.990043e-01   1.111267e+00   1.111370e+00   2.181749e-01  
 3.397556e-08   4.111043e-01   1.104010e+00   1.104144e+00   2.082668e-01  
 3.497556e-08   4.232043e-01   1.096464e+00   1.096639e+00   1.983105e-01  
 3.597556e-08   4.353043e-01   1.088605e+00   1.088837e+00   1.883255e-01  
 3.697556e-08   4.474043e-01   1.080397e+00   1.080707e+00   1.783342e-01  
 3.797556e-08   4.595043e-01   1.071780e+00   1.072202e+00   1.683641e-01  
 3.897556e-08   4.716043e-01   1.062657e+00   1.063244e+00   1.584516e-01  
 3.997556e-08   4.837043e-01   1.052858e+00   1.053697e+00   1.486514e-01  
 4.097556e-08   4.958043e-01   1.042056e+00   1.043313e+00   1.390569e-01  
 4.197556e-08   5.079043e-01   1.029553e+00   1.031587e+00   1.298427e-01  
 4.297556e-08   5.200043e-01   1.013466e+00   1.017356e+00   1.213176e-01  
 4.385565e-08   5.306534e-01   9.917545e-01   1.000710e+00   1.146857e-01  
 4.428096e-08   5.357996e-01   9.755614e-01   9.904570e-01   1.118196e-01  
 4.467508e-08   5.405685e-01   9.553068e-01   9.795644e-01   1.093546e-01  
 4.502293e-08   5.447774e-01   9.328595e-01   9.691188e-01   1.073184e-01  
 4.531864e-08   5.483556e-01   9.108141e-01   9.599172e-01   1.056795e-01  
 4.561350e-08   5.519234e-01   8.865555e-01   9.506656e-01   1.041202e-01  
 4.592419e-08   5.556827e-01   8.589428e-01   9.409880e-01   1.025488e-01  
 4.625276e-08   5.596584e-01   8.278210e-01   9.309317e-01   1.009568e-01  
 4.660571e-08   5.639292e-01   7.925585e-01   9.203884e-01   9.931627e-02  
 4.698945e-08   5.685723e-01   7.524734e-01   9.092506e-01   9.760266e-02  
 4.741133e-08   5.736771e-01   7.067887e-01   8.973889e-01   9.579028e-02  
 4.788592e-08   5.794197e-01   6.540210e-01   8.844945e-01   9.382694e-02  
 4.844584e-08   5.861947e-01   5.908680e-01   8.698371e-01   9.159613e-02  
 4.917759e-08   5.950488e-01   5.087461e-01   8.514772e-01   8.879443e-02  
 4.992741e-08   6.041217e-01   4.275557e-01   8.334661e-01   8.603143e-02  
 5.061456e-08   6.124362e-01   3.580381e-01   8.175688e-01   8.357774e-02  
 5.117431e-08   6.192092e-01   3.062757e-01   8.049927e-01   8.162596e-02  
 5.164990e-08   6.249639e-01   2.666293e-01   7.945431e-01   7.999692e-02  
 5.207209e-08   6.300723e-01   2.355569e-01   7.854324e-01   7.857131e-02  
 5.244711e-08   6.346101e-01   2.120724e-01   7.774608e-01   7.731995e-02  
 5.277849e-08   6.386197e-01   1.952816e-01   7.705059e-01   7.622527e-02  
 5.307545e-08   6.422129e-01   1.835692e-01   7.643409e-01   7.525269e-02  
 5.335653e-08   6.456141e-01   1.749832e-01   7.585614e-01   7.433908e-02  
 5.364517e-08   6.491066e-01   1.680634e-01   7.526810e-01   7.340776e-02  
 5.396218e-08   6.529423e-01   1.619972e-01   7.462836e-01   7.239258e-02  
 5.432717e-08   6.573587e-01   1.563176e-01   7.389937e-01   7.123336e-02  
 5.476326e-08   6.626355e-01   1.506944e-01   7.303851e-01   6.986128e-02  
 5.529814e-08   6.691075e-01   1.448821e-01   7.199701e-01   6.819697e-02  
 5.596376e-08   6.771616e-01   1.386330e-01   7.072178e-01   6.615312e-02  
 5.681492e-08   6.874605e-01   1.316152e-01   6.912278e-01   6.358173e-02  
 5.781492e-08   6.995605e-01   1.242185e-01   6.728672e-01   6.061852e-02  
 5.881492e-08   7.116605e-01   1.174073e-01   6.549405e-01   5.771562e-02  
 5.981492e-08   7.237605e-01   1.110108e-01   6.374281e-01   5.487160e-02  
 6.081492e-08   7.358605e-01   1.049242e-01   6.203169e-01   5.208575e-02  
 6.181492e-08   7.479605e-01   9.909010e-02   6.035990e-01   4.935792e-02  
 6.281492e-08   7.600605e-01   9.347161e-02   5.872707e-01   4.668838e-02  
 6.381492e-08   7.721605e-01   8.804484e-02   5.713316e-01   4.407775e-02  
 6.481492e-08   7.842605e-01   8.279388e-02   5.557842e-01   4.152692e-02  
 6.581492e-08   7.963605e-01   7.770798e-02   5.406331e-01   3.903690e-02  
 6.681492e-08   8.084605e-01   7.277988e-02   5.258849e-01   3.660882e-02  
 6.781492e-08   8.205605e-01   6.800457e-02   5.115478e-01   3.424379e-02  
 6.881492e-08   8.326605e-01   6.337851e-02   4.976311e-01   3.194285e-02  
 6.981492e-08   8.447605e-01   5.889900e-02   4.841455e-01   2.970688e-02  
 7.081492e-08   8.568605e-01   5.456377e-02   4.711029e-01   2.753651e-02  
 7.181492e-08   8.689605e-01   5.037064e-02   4.585167e-01   2.543209e-02  
 7.281492e-08   8.810605e-01   4.631730e-02   4.464024e-01   2.339363e-02  
 7.381492e-08   8.931605e-01   4.240124e-02   4.347786e-01   2.142085e-02  
 7.481492e-08   9.052605e-01   3.861987e-02   4.236687e-01   1.951324e-02  
 7.581492e-08   9.173605e-01   3.497084e-02   4.131033e-01   1.767030e-02  
 7.681492e-08   9.294605e-01   3.145262e-02   4.031229e-01   1.589183e-02  
 7.781492e-08   9.415605e-01   2.806538e-02   3.937805e-01   1.417839e-02  
 7.881492e-08   9.536605e-01   2.481207e-02   3.851425e-01   1.253191e-02  
 7.981492e-08   9.657605e-01   2.169967e-02   3.772836e-01   1.095629e-02  
 8.081492e-08   9.778605e-01   1.874028e-02   3.702740e-01   9.457994e-03  
 8.181492e-08   9.899605e-01   1.595164e-02   3.641581e-01   8.046293e-03  
 8.281492e-08   1.002060e+00   1.335673e-02   3.589356e-01   6.733081e-03  
 8.381492e-08   1.014160e+00   1.098185e-02   3.545569e-01   5.531869e-03  
 8.481492e-08   1.026260e+00   8.853141e-03   3.509353e-01   4.455987e-03  
 8.581492e-08   1.038360e+00   6.991772e-03   3.479661e-01   3.516129e-03  
 8.681492e-08   1.050460e+00   5.408991e-03   3.455424e-01   2.717834e-03  
 8.781492e-08   1.062560e+00   4.102535e-03   3.435654e-01   2.059706e-03  
 8.881492e-08   1.074660e+00   3.055890e-03   3.419483e-01   1.533102e-03  
 8.981492e-08   1.086760e+00   2.240762e-03   3.406180e-01   1.123455e-03  
 9.081492e-08   1.098860e+00   1.621786e-03   3.395149e-01   8.127054e-04  
 9.181492e-08   1.110960e+00   1.161736e-03   3.385916e-01   5.819415e-04  
 9.281492e-08   1.123060e+00   8.257008e-04   3.378110e-01   4.135024e-04  
 9.381492e-08   1.135160e+00   5.835587e-04   3.371447e-01   2.921945e-04  
 9.473469e-08   1.146289e+00   4.226320e-04   3.366137e-01   2.116068e-04  
 9.542629e-08   1.154658e+00   3.311337e-04   3.362578e-01   1.657995e-04  
 9.593632e-08   1.160829e+00   2.764828e-04   3.360161e-01   1.384439e-04  
 9.632985e-08   1.165591e+00   2.405277e-04   3.358405e-01   1.204485e-04  
 9.664327e-08   1.169383e+00   2.152625e-04   3.357070e-01   1.078044e-04  
 9.690174e-08   1.172511e+00   1.964393e-04   3.356009e-01   9.838477e-05  
 9.712260e-08   1.175183e+00   1.816696e-04   3.355130e-01   9.099395e-05  
 9.731645e-08   1.177529e+00   1.696299e-04   3.354378e-01   8.496945e-05  
 9.749006e-08   1.179629e+00   1.595322e-04   3.353720e-01   7.991682e-05  
 9.764802e-08   1.181541e+00   1.508725e-04   3.353134e-01   7.558388e-05  
 9.779351e-08   1.183301e+00   1.433183e-04   3.352604e-01   7.180419e-05  
 9.792873e-08   1.184937e+00   1.366412e-04   3.352120e-01   6.846340e-05  
 9.805532e-08   1.186469e+00   1.306770e-04   3.351674e-01   6.547936e-05  
 9.817450e-08   1.187911e+00   1.253039e-04   3.351260e-01   6.279115e-05  
 9.828722e-08   1.189275e+00   1.204292e-04   3.350875e-01   6.035228e-05  
 9.839423e-08   1.190570e+00   1.159801e-04   3.350513e-01   5.812642e-05  
 9.849616e-08   1.191803e+00   1.118987e-04   3.350174e-01   5.608452e-05  
 9.859351e-08   1.192981e+00   1.081377e-04   3.349853e-01   5.420298e-05  
 9.869027e-08   1.194152e+00   1.045278e-04   3.349538e-01   5.239703e-05  
 9.878283e-08   1.195272e+00   1.011904e-04   3.349240e-01   5.072742e-05  
 9.887245e-08   1.196356e+00   9.806306e-05   3.348955e-01   4.916289e-05  
 9.895876e-08   1.197401e+00   9.514517e-05   3.348683e-01   4.770319e-05  
 9.904218e-08   1.198410e+00   9.240972e-05   3.348423e-01   4.633477e-05  
 9.912281e-08   1.199386e+00   8.984286e-05   3.348174e-01   4.505070e-05  
 9.920087e-08   1.200330e+00   8.742802e-05   3.347935e-01   4.384269e-05  
 9.927650e-08   1.201245e+00   8.515237e-05   3.347706e-01   4.270432e-05  
 9.934985e-08   1.202133e+00   8.300376e-05   3.347485e-01   4.162951e-05  
 9.942105e-08   1.202994e+00   8.097173e-05   3.347273e-01   4.061303e-05  
 9.949022e-08   1.203831e+00   7.904684e-05   3.347069e-01   3.965015e-05  
 9.955749e-08   1.204645e+00   7.722069e-05   3.346871e-01   3.873667e-05  
 9.962342e-08   1.205443e+00   7.547337e-05   3.346680e-01   3.786263e-05  
 9.968922e-08   1.206239e+00   7.377047e-05   3.346490e-01   3.701081e-05  
 9.975486e-08   1.207033e+00   7.211156e-05   3.346302e-01   3.618101e-05  
 9.982049e-08   1.207827e+00   7.049170e-05   3.346115e-01   3.537074e-05  
 9.991024e-08   1.208913e+00   6.833785e-05   3.345863e-01   3.429338e-05  
 1.000000e-07   1.210000e+00   6.625276e-05   3.345612e-01   3.325042e-05  
