
time (s)       getData("/nvtc getData("/SNMh getData("/SNMr getData("/SNMw

 0.000000e+00   0.000000e+00   8.299694e-01   8.299694e-01   2.949427e-01  
 1.599201e-11   1.327337e-04   8.299718e-01   8.299718e-01   2.947861e-01  
 2.777218e-11   2.305090e-04   8.299718e-01   8.299718e-01   2.946625e-01  
 4.522436e-11   3.753621e-04   8.299717e-01   8.299717e-01   2.944788e-01  
 8.012872e-11   6.650683e-04   8.299714e-01   8.299714e-01   2.941120e-01  
 1.499374e-10   1.244480e-03   8.299708e-01   8.299708e-01   2.933813e-01  
 2.895548e-10   2.403305e-03   8.299697e-01   8.299697e-01   2.919311e-01  
 5.687897e-10   4.720955e-03   8.299672e-01   8.299672e-01   2.890769e-01  
 1.125652e-09   9.342916e-03   8.299618e-01   8.299618e-01   2.835736e-01  
 1.820555e-09   1.511060e-02   8.299539e-01   8.299539e-01   2.770655e-01  
 2.575544e-09   2.137701e-02   8.299435e-01   8.299435e-01   2.704426e-01  
 3.386905e-09   2.811131e-02   8.299298e-01   8.299298e-01   2.638185e-01  
 4.244778e-09   3.523165e-02   8.299120e-01   8.299120e-01   2.573186e-01  
 5.149444e-09   4.274038e-02   8.298884e-01   8.298884e-01   2.509533e-01  
 6.115305e-09   5.075703e-02   8.298564e-01   8.298565e-01   2.446243e-01  
 7.115305e-09   5.905703e-02   8.298140e-01   8.298140e-01   2.384890e-01  
 8.115305e-09   6.735703e-02   8.297593e-01   8.297593e-01   2.326976e-01  
 9.115305e-09   7.565703e-02   8.296889e-01   8.296890e-01   2.271838e-01  
 1.011530e-08   8.395703e-02   8.295986e-01   8.295987e-01   2.218946e-01  
 1.111530e-08   9.225703e-02   8.294829e-01   8.294831e-01   2.167879e-01  
 1.211530e-08   1.005570e-01   8.293351e-01   8.293353e-01   2.118305e-01  
 1.311530e-08   1.088570e-01   8.291469e-01   8.291471e-01   2.069953e-01  
 1.411530e-08   1.171570e-01   8.289081e-01   8.289084e-01   2.022602e-01  
 1.511530e-08   1.254570e-01   8.286069e-01   8.286073e-01   1.976068e-01  
 1.611530e-08   1.337570e-01   8.282293e-01   8.282298e-01   1.930191e-01  
 1.711530e-08   1.420570e-01   8.277594e-01   8.277600e-01   1.884832e-01  
 1.811530e-08   1.503570e-01   8.271799e-01   8.271808e-01   1.839859e-01  
 1.911530e-08   1.586570e-01   8.264727e-01   8.264737e-01   1.795152e-01  
 2.011530e-08   1.669570e-01   8.256194e-01   8.256208e-01   1.750591e-01  
 2.111530e-08   1.752570e-01   8.246031e-01   8.246048e-01   1.706057e-01  
 2.211530e-08   1.835570e-01   8.234090e-01   8.234110e-01   1.661435e-01  
 2.311530e-08   1.918570e-01   8.220253e-01   8.220278e-01   1.616609e-01  
 2.411530e-08   2.001570e-01   8.204446e-01   8.204476e-01   1.571467e-01  
 2.511530e-08   2.084570e-01   8.186628e-01   8.186664e-01   1.525908e-01  
 2.611530e-08   2.167570e-01   8.166796e-01   8.166839e-01   1.479841e-01  
 2.711530e-08   2.250570e-01   8.144971e-01   8.145021e-01   1.433193e-01  
 2.811530e-08   2.333570e-01   8.121183e-01   8.121241e-01   1.385909e-01  
 2.911530e-08   2.416570e-01   8.095465e-01   8.095532e-01   1.337956e-01  
 3.011530e-08   2.499570e-01   8.067836e-01   8.067912e-01   1.289320e-01  
 3.111530e-08   2.582570e-01   8.038293e-01   8.038379e-01   1.240006e-01  
 3.211530e-08   2.665570e-01   8.006801e-01   8.006900e-01   1.190033e-01  
 3.311530e-08   2.748570e-01   7.973290e-01   7.973403e-01   1.139431e-01  
 3.411530e-08   2.831570e-01   7.937645e-01   7.937776e-01   1.088243e-01  
 3.511530e-08   2.914570e-01   7.899695e-01   7.899848e-01   1.036519e-01  
 3.611530e-08   2.997570e-01   7.859197e-01   7.859377e-01   9.843220e-02  
 3.711530e-08   3.080570e-01   7.815804e-01   7.816018e-01   9.317252e-02  
 3.811530e-08   3.163570e-01   7.769004e-01   7.769264e-01   8.788240e-02  
 3.911530e-08   3.246570e-01   7.718009e-01   7.718331e-01   8.257467e-02  
 4.011530e-08   3.329570e-01   7.661504e-01   7.661919e-01   7.726803e-02  
 4.111530e-08   3.412570e-01   7.597073e-01   7.597636e-01   7.199205e-02  
 4.211530e-08   3.495570e-01   7.519600e-01   7.520444e-01   6.679633e-02  
 4.264584e-08   3.539604e-01   7.469234e-01   7.470364e-01   6.409930e-02  
 4.310238e-08   3.577498e-01   7.417042e-01   7.418604e-01   6.182808e-02  
 4.350741e-08   3.611115e-01   7.359566e-01   7.361837e-01   5.986288e-02  
 4.379590e-08   3.635059e-01   7.308434e-01   7.311622e-01   5.849742e-02  
 4.399961e-08   3.651968e-01   7.264810e-01   7.269055e-01   5.755270e-02  
 4.416405e-08   3.665616e-01   7.223567e-01   7.229082e-01   5.680288e-02  
 4.431353e-08   3.678023e-01   7.180283e-01   7.187449e-01   5.613167e-02  
 4.445241e-08   3.689550e-01   7.134256e-01   7.143574e-01   5.551734e-02  
 4.458862e-08   3.700855e-01   7.083010e-01   7.095243e-01   5.492376e-02  
 4.474375e-08   3.713731e-01   7.016780e-01   7.033666e-01   5.425890e-02  
 4.494020e-08   3.730036e-01   6.920838e-01   6.946447e-01   5.343439e-02  
 4.512046e-08   3.744998e-01   6.821822e-01   6.859268e-01   5.269527e-02  
 4.525084e-08   3.755819e-01   6.744516e-01   6.793508e-01   5.217127e-02  
 4.535829e-08   3.764738e-01   6.677705e-01   6.738493e-01   5.174607e-02  
 4.547110e-08   3.774101e-01   6.604936e-01   6.680642e-01   5.130616e-02  
 4.559500e-08   3.784385e-01   6.522307e-01   6.617713e-01   5.083067e-02  
 4.571861e-08   3.794645e-01   6.437399e-01   6.556206e-01   5.036417e-02  
 4.584643e-08   3.805253e-01   6.347345e-01   6.494490e-01   4.989002e-02  
 4.599305e-08   3.817423e-01   6.241573e-01   6.426519e-01   4.935625e-02  
 4.617119e-08   3.832209e-01   6.109978e-01   6.348373e-01   4.872199e-02  
 4.639760e-08   3.851000e-01   5.938568e-01   6.256144e-01   4.793785e-02  
 4.668186e-08   3.874594e-01   5.717841e-01   6.150750e-01   4.698651e-02  
 4.699540e-08   3.900618e-01   5.468596e-01   6.045977e-01   4.597752e-02  
 4.733934e-08   3.929165e-01   5.189681e-01   5.942172e-01   4.491561e-02  
 4.772573e-08   3.961236e-01   4.871228e-01   5.836347e-01   4.377366e-02  
 4.816232e-08   3.997473e-01   4.507091e-01   5.727260e-01   4.254150e-02  
 4.865860e-08   4.038664e-01   4.090575e-01   5.613484e-01   4.120685e-02  
 4.922642e-08   4.085793e-01   3.614845e-01   5.493412e-01   3.975456e-02  
 4.987746e-08   4.139829e-01   3.076749e-01   5.365844e-01   3.817343e-02  
 5.060092e-08   4.199876e-01   2.497376e-01   5.233844e-01   3.650587e-02  
 5.126690e-08   4.255153e-01   1.991772e-01   5.119537e-01   3.504204e-02  
 5.183980e-08   4.302703e-01   1.588767e-01   5.025766e-01   3.383057e-02  
 5.231803e-08   4.342396e-01   1.288156e-01   4.950277e-01   3.284974e-02  
 5.252888e-08   4.359897e-01   1.172098e-01   4.917723e-01   3.242549e-02  
 5.270494e-08   4.374510e-01   1.085993e-01   4.890861e-01   3.207490e-02  
 5.291115e-08   4.391626e-01   9.998048e-02   4.859756e-01   3.166841e-02  
 5.312597e-08   4.409455e-01   9.272812e-02   4.827746e-01   3.124957e-02  
 5.333550e-08   4.426846e-01   8.714610e-02   4.796894e-01   3.084543e-02  
 5.351196e-08   4.441493e-01   8.334892e-02   4.771183e-01   3.050833e-02  
 5.366558e-08   4.454243e-01   8.056042e-02   4.748998e-01   3.021727e-02  
 5.382986e-08   4.467878e-01   7.798761e-02   4.725470e-01   2.990842e-02  
 5.402112e-08   4.483753e-01   7.540187e-02   4.698326e-01   2.955190e-02  
 5.423407e-08   4.501428e-01   7.291448e-02   4.668407e-01   2.915875e-02  
 5.446898e-08   4.520925e-01   7.052642e-02   4.635763e-01   2.872960e-02  
 5.474511e-08   4.543844e-01   6.807022e-02   4.597854e-01   2.823107e-02  
 5.508238e-08   4.571837e-01   6.544298e-02   4.552200e-01   2.763059e-02  
 5.549369e-08   4.605976e-01   6.263317e-02   4.497442e-01   2.691043e-02  
 5.599967e-08   4.647972e-01   5.959084e-02   4.431386e-01   2.604214e-02  
 5.663918e-08   4.701052e-01   5.619414e-02   4.349818e-01   2.497130e-02  
 5.746396e-08   4.769509e-01   5.231429e-02   4.247540e-01   2.363193e-02  
 5.846396e-08   4.852509e-01   4.812446e-02   4.127561e-01   2.206757e-02  
 5.946396e-08   4.935509e-01   4.433293e-02   4.011599e-01   2.056482e-02  
 6.046396e-08   5.018509e-01   4.083988e-02   3.899317e-01   1.912047e-02  
 6.146396e-08   5.101509e-01   3.758633e-02   3.790447e-01   1.773188e-02  
 6.246396e-08   5.184509e-01   3.453418e-02   3.684776e-01   1.639685e-02  
 6.346396e-08   5.267509e-01   3.165737e-02   3.582135e-01   1.511356e-02  
 6.446396e-08   5.350509e-01   2.893736e-02   3.482391e-01   1.388062e-02  
 6.546396e-08   5.433509e-01   2.636074e-02   3.385448e-01   1.269700e-02  
 6.646396e-08   5.516509e-01   2.391781e-02   3.291235e-01   1.156213e-02  
 6.746396e-08   5.599509e-01   2.160179e-02   3.199711e-01   1.047587e-02  
 6.846396e-08   5.682509e-01   1.940835e-02   3.110858e-01   9.438648e-03  
 6.946396e-08   5.765509e-01   1.733525e-02   3.024681e-01   8.451399e-03  
 7.046396e-08   5.848509e-01   1.538215e-02   2.941204e-01   7.515638e-03  
 7.146396e-08   5.931509e-01   1.355031e-02   2.860469e-01   6.633382e-03  
 7.246396e-08   6.014509e-01   1.184225e-02   2.782526e-01   5.807049e-03  
 7.346396e-08   6.097509e-01   1.026125e-02   2.707433e-01   5.039265e-03  
 7.446396e-08   6.180509e-01   8.810778e-03   2.635250e-01   4.332592e-03  
 7.546396e-08   6.263509e-01   7.493760e-03   2.566035e-01   3.689196e-03  
 7.646396e-08   6.346509e-01   6.311825e-03   2.499845e-01   3.110484e-03  
 7.746396e-08   6.429509e-01   5.264617e-03   2.436745e-01   2.596777e-03  
 7.846396e-08   6.512509e-01   4.349300e-03   2.376818e-01   2.147070e-03  
 7.946396e-08   6.595509e-01   3.560352e-03   2.320181e-01   1.758948e-03  
 8.046396e-08   6.678509e-01   2.889705e-03   2.267007e-01   1.428662e-03  
 8.146396e-08   6.761509e-01   2.327207e-03   2.217538e-01   1.151373e-03  
 8.246396e-08   6.844509e-01   1.861294e-03   2.172071e-01   9.214999e-04  
 8.346396e-08   6.927509e-01   1.479757e-03   2.130920e-01   7.331068e-04  
 8.446396e-08   7.010509e-01   1.170457e-03   2.094328e-01   5.802666e-04  
 8.546396e-08   7.093509e-01   9.219012e-04   2.062364e-01   4.573522e-04  
 8.646396e-08   7.176509e-01   7.236357e-04   2.034866e-01   3.592359e-04  
 8.746396e-08   7.259509e-01   5.664600e-04   2.011457e-01   2.813977e-04  
 8.846396e-08   7.342509e-01   4.424887e-04   1.991626e-01   2.199595e-04  
 8.946396e-08   7.425509e-01   3.451082e-04   1.974823e-01   1.716652e-04  
 9.046396e-08   7.508509e-01   2.688666e-04   1.960529e-01   1.338280e-04  
 9.146396e-08   7.591509e-01   2.093312e-04   1.948295e-01   1.042617e-04  
 9.246396e-08   7.674509e-01   1.629370e-04   1.937744e-01   8.120633e-05  
 9.346396e-08   7.757509e-01   1.268420e-04   1.928576e-01   6.325745e-05  
 9.446396e-08   7.840509e-01   9.879507e-05   1.920546e-01   4.930196e-05  
 9.546396e-08   7.923509e-01   7.702304e-05   1.913463e-01   3.846225e-05  
 9.646396e-08   8.006509e-01   6.013480e-05   1.907173e-01   3.004923e-05  
 9.746396e-08   8.089509e-01   4.704246e-05   1.901552e-01   2.352362e-05  
 9.846396e-08   8.172509e-01   3.689737e-05   1.896502e-01   1.846438e-05  
 9.923198e-08   8.236254e-01   3.068721e-05   1.892960e-01   1.536608e-05  
 1.000000e-07   8.300000e-01   2.558392e-05   1.889675e-01   1.281909e-05  
