
time (s)       getData("/nvtc getData("/SNMh getData("/SNMr getData("/SNMw

 0.000000e+00   0.000000e+00   4.799843e-01   4.799843e-01   1.365296e-01  
 2.068654e-11   9.929543e-05   4.799859e-01   4.799859e-01   1.363179e-01  
 3.646147e-11   1.750150e-04   4.799859e-01   4.799859e-01   1.361212e-01  
 5.826232e-11   2.796591e-04   4.799858e-01   4.799858e-01   1.358450e-01  
 9.437211e-11   4.529861e-04   4.799858e-01   4.799858e-01   1.353879e-01  
 1.665917e-10   7.996401e-04   4.799856e-01   4.799856e-01   1.344793e-01  
 3.110308e-10   1.492948e-03   4.799852e-01   4.799852e-01   1.326839e-01  
 5.941009e-10   2.851684e-03   4.799845e-01   4.799845e-01   1.292537e-01  
 9.510122e-10   4.564858e-03   4.799835e-01   4.799835e-01   1.251084e-01  
 1.333363e-09   6.400144e-03   4.799823e-01   4.799823e-01   1.209076e-01  
 1.730463e-09   8.306222e-03   4.799811e-01   4.799811e-01   1.168229e-01  
 2.132028e-09   1.023373e-02   4.799798e-01   4.799798e-01   1.129883e-01  
 2.533423e-09   1.216043e-02   4.799783e-01   4.799783e-01   1.094507e-01  
 2.937157e-09   1.409835e-02   4.799768e-01   4.799768e-01   1.061785e-01  
 3.347503e-09   1.606801e-02   4.799751e-01   4.799751e-01   1.031271e-01  
 3.769224e-09   1.809227e-02   4.799733e-01   4.799733e-01   1.002531e-01  
 4.207760e-09   2.019724e-02   4.799713e-01   4.799713e-01   9.751492e-02  
 4.668914e-09   2.241079e-02   4.799690e-01   4.799690e-01   9.487585e-02  
 5.158753e-09   2.476201e-02   4.799663e-01   4.799663e-01   9.230422e-02  
 5.683759e-09   2.728204e-02   4.799632e-01   4.799633e-01   8.977205e-02  
 6.250966e-09   3.000463e-02   4.799596e-01   4.799596e-01   8.725405e-02  
 6.868078e-09   3.296677e-02   4.799553e-01   4.799553e-01   8.472676e-02  
 7.543612e-09   3.620934e-02   4.799500e-01   4.799500e-01   8.216786e-02  
 8.287034e-09   3.977776e-02   4.799435e-01   4.799435e-01   7.955558e-02  
 9.108863e-09   4.372254e-02   4.799353e-01   4.799353e-01   7.686842e-02  
 1.002074e-08   4.809959e-02   4.799249e-01   4.799249e-01   7.408496e-02  
 1.102074e-08   5.289959e-02   4.799115e-01   4.799115e-01   7.122487e-02  
 1.202074e-08   5.769959e-02   4.798957e-01   4.798957e-01   6.852752e-02  
 1.302074e-08   6.249959e-02   4.798771e-01   4.798771e-01   6.596386e-02  
 1.402074e-08   6.729959e-02   4.798551e-01   4.798552e-01   6.351237e-02  
 1.502074e-08   7.209959e-02   4.798293e-01   4.798293e-01   6.115679e-02  
 1.602074e-08   7.689959e-02   4.797987e-01   4.797988e-01   5.888465e-02  
 1.702074e-08   8.169959e-02   4.797626e-01   4.797627e-01   5.668620e-02  
 1.802074e-08   8.649959e-02   4.797200e-01   4.797201e-01   5.455371e-02  
 1.902074e-08   9.129959e-02   4.796696e-01   4.796698e-01   5.248102e-02  
 2.002074e-08   9.609959e-02   4.796100e-01   4.796102e-01   5.046312e-02  
 2.102074e-08   1.008995e-01   4.795395e-01   4.795397e-01   4.849589e-02  
 2.202074e-08   1.056995e-01   4.794559e-01   4.794561e-01   4.657594e-02  
 2.302074e-08   1.104995e-01   4.793569e-01   4.793572e-01   4.470039e-02  
 2.402074e-08   1.152995e-01   4.792396e-01   4.792399e-01   4.286681e-02  
 2.502074e-08   1.200995e-01   4.791003e-01   4.791007e-01   4.107310e-02  
 2.602074e-08   1.248995e-01   4.789351e-01   4.789356e-01   3.931744e-02  
 2.702074e-08   1.296995e-01   4.787389e-01   4.787395e-01   3.759820e-02  
 2.802074e-08   1.344995e-01   4.785058e-01   4.785065e-01   3.591392e-02  
 2.902074e-08   1.392995e-01   4.782287e-01   4.782296e-01   3.426328e-02  
 3.002074e-08   1.440995e-01   4.778991e-01   4.779002e-01   3.264506e-02  
 3.102074e-08   1.488995e-01   4.775068e-01   4.775081e-01   3.105814e-02  
 3.202074e-08   1.536995e-01   4.770394e-01   4.770411e-01   2.950153e-02  
 3.302074e-08   1.584995e-01   4.764822e-01   4.764842e-01   2.797431e-02  
 3.402074e-08   1.632995e-01   4.758168e-01   4.758194e-01   2.647574e-02  
 3.502074e-08   1.680995e-01   4.750210e-01   4.750242e-01   2.500528e-02  
 3.602074e-08   1.728995e-01   4.740668e-01   4.740709e-01   2.356265e-02  
 3.702074e-08   1.776995e-01   4.729187e-01   4.729240e-01   2.214797e-02  
 3.802074e-08   1.824995e-01   4.715297e-01   4.715365e-01   2.076185e-02  
 3.902074e-08   1.872995e-01   4.698351e-01   4.698440e-01   1.940552e-02  
 4.002074e-08   1.920995e-01   4.677382e-01   4.677502e-01   1.808098e-02  
 4.102074e-08   1.968995e-01   4.650790e-01   4.650956e-01   1.679102e-02  
 4.202074e-08   2.016995e-01   4.615468e-01   4.615718e-01   1.553918e-02  
 4.290483e-08   2.059431e-01   4.571025e-01   4.571437e-01   1.446748e-02  
 4.327677e-08   2.077285e-01   4.545564e-01   4.546115e-01   1.402720e-02  
 4.359287e-08   2.092458e-01   4.518401e-01   4.519153e-01   1.365819e-02  
 4.388432e-08   2.106447e-01   4.486500e-01   4.487569e-01   1.332232e-02  
 4.409903e-08   2.116753e-01   4.456719e-01   4.458182e-01   1.307760e-02  
 4.425208e-08   2.124099e-01   4.430976e-01   4.432862e-01   1.290461e-02  
 4.437927e-08   2.130204e-01   4.405959e-01   4.408328e-01   1.276176e-02  
 4.450109e-08   2.136052e-01   4.378341e-01   4.381320e-01   1.262573e-02  
 4.462001e-08   2.141760e-01   4.347490e-01   4.351241e-01   1.249370e-02  
 4.474284e-08   2.147656e-01   4.311298e-01   4.316058e-01   1.235812e-02  
 4.490436e-08   2.155409e-01   4.257016e-01   4.263474e-01   1.218106e-02  
 4.507853e-08   2.163769e-01   4.190797e-01   4.199608e-01   1.199173e-02  
 4.520672e-08   2.169922e-01   4.137904e-01   4.148839e-01   1.185344e-02  
 4.530635e-08   2.174705e-01   4.094900e-01   4.107758e-01   1.174658e-02  
 4.550561e-08   2.184269e-01   4.005261e-01   4.022876e-01   1.153452e-02  
 4.565780e-08   2.191574e-01   3.934468e-01   3.956731e-01   1.137406e-02  
 4.577454e-08   2.197178e-01   3.879224e-01   3.905799e-01   1.125186e-02  
 4.590784e-08   2.203576e-01   3.815421e-01   3.847870e-01   1.111329e-02  
 4.609680e-08   2.212646e-01   3.723990e-01   3.766832e-01   1.091857e-02  
 4.629169e-08   2.222001e-01   3.628834e-01   3.685413e-01   1.071992e-02  
 4.648377e-08   2.231221e-01   3.534439e-01   3.608080e-01   1.052629e-02  
 4.670041e-08   2.241619e-01   3.427442e-01   3.525089e-01   1.031050e-02  
 4.696387e-08   2.254265e-01   3.296755e-01   3.431018e-01   1.005180e-02  
 4.724771e-08   2.267890e-01   3.155441e-01   3.338607e-01   9.777701e-03  
 4.753272e-08   2.281570e-01   3.013149e-01   3.255039e-01   9.507333e-03  
 4.782371e-08   2.295538e-01   2.867563e-01   3.178571e-01   9.236322e-03  
 4.812604e-08   2.310050e-01   2.716086e-01   3.107537e-01   8.960183e-03  
 4.844380e-08   2.325302e-01   2.556738e-01   3.040813e-01   8.675929e-03  
 4.878283e-08   2.341576e-01   2.386676e-01   2.977142e-01   8.379410e-03  
 4.914943e-08   2.359172e-01   2.202873e-01   2.915495e-01   8.066649e-03  
 4.954985e-08   2.378392e-01   2.002398e-01   2.855110e-01   7.734366e-03  
 4.999086e-08   2.399561e-01   1.782199e-01   2.795355e-01   7.379647e-03  
 5.047992e-08   2.423036e-01   1.539113e-01   2.735683e-01   6.999988e-03  
 5.102530e-08   2.449214e-01   1.270072e-01   2.675609e-01   6.593484e-03  
 5.163624e-08   2.478539e-01   9.729049e-02   2.614680e-01   6.158984e-03  
 5.232323e-08   2.511515e-01   6.522733e-02   2.552452e-01   5.696320e-03  
 5.254307e-08   2.522067e-01   5.580242e-02   2.533704e-01   5.553964e-03  
 5.272910e-08   2.530996e-01   4.853915e-02   2.518224e-01   5.435635e-03  
 5.290740e-08   2.539555e-01   4.246686e-02   2.503699e-01   5.324040e-03  
 5.306072e-08   2.546914e-01   3.807522e-02   2.491440e-01   5.229498e-03  
 5.322966e-08   2.555023e-01   3.412203e-02   2.478167e-01   5.126830e-03  
 5.340533e-08   2.563455e-01   3.085711e-02   2.464613e-01   5.021736e-03  
 5.355064e-08   2.570431e-01   2.867004e-02   2.453583e-01   4.936071e-03  
 5.368299e-08   2.576783e-01   2.698930e-02   2.443674e-01   4.859045e-03  
 5.383139e-08   2.583906e-01   2.537756e-02   2.432713e-01   4.773802e-03  
 5.400666e-08   2.592319e-01   2.375943e-02   2.419961e-01   4.674636e-03  
 5.419985e-08   2.601593e-01   2.224601e-02   2.406138e-01   4.567220e-03  
 5.441562e-08   2.611950e-01   2.080469e-02   2.390972e-01   4.449565e-03  
 5.467400e-08   2.624352e-01   1.933354e-02   2.373170e-01   4.311860e-03  
 5.499157e-08   2.639595e-01   1.780167e-02   2.351787e-01   4.147288e-03  
 5.537875e-08   2.658180e-01   1.622840e-02   2.326404e-01   3.953510e-03  
 5.585681e-08   2.681127e-01   1.460010e-02   2.296010e-01   3.724426e-03  
 5.646332e-08   2.710239e-01   1.288282e-02   2.258793e-01   3.449510e-03  
 5.724407e-08   2.747715e-01   1.106993e-02   2.212817e-01   3.120499e-03  
 5.823087e-08   2.795082e-01   9.222901e-03   2.157353e-01   2.742630e-03  
 5.923087e-08   2.843082e-01   7.712948e-03   2.103670e-01   2.400122e-03  
 6.023087e-08   2.891082e-01   6.474114e-03   2.052106e-01   2.095203e-03  
 6.123087e-08   2.939082e-01   5.446914e-03   2.002328e-01   1.824787e-03  
 6.223087e-08   2.987082e-01   4.589716e-03   1.954065e-01   1.585848e-03  
 6.323087e-08   3.035082e-01   3.871474e-03   1.907100e-01   1.375460e-03  
 6.423087e-08   3.083082e-01   3.268071e-03   1.861251e-01   1.190820e-03  
 6.523087e-08   3.131082e-01   2.760264e-03   1.816371e-01   1.029276e-03  
 6.623087e-08   3.179082e-01   2.332409e-03   1.772334e-01   8.883413e-04  
 6.723087e-08   3.227082e-01   1.971637e-03   1.729038e-01   7.657068e-04  
 6.823087e-08   3.275082e-01   1.667263e-03   1.686397e-01   6.592494e-04  
 6.923087e-08   3.323082e-01   1.410368e-03   1.644341e-01   5.670323e-04  
 7.023087e-08   3.371082e-01   1.193481e-03   1.602811e-01   4.873026e-04  
 7.123087e-08   3.419082e-01   1.010320e-03   1.561761e-01   4.184852e-04  
 7.223087e-08   3.467082e-01   8.556033e-04   1.521154e-01   3.591740e-04  
 7.323087e-08   3.515082e-01   7.248779e-04   1.480964e-01   3.081211e-04  
 7.423087e-08   3.563082e-01   6.143933e-04   1.441169e-01   2.642248e-04  
 7.523087e-08   3.611082e-01   5.209872e-04   1.401757e-01   2.265173e-04  
 7.623087e-08   3.659082e-01   4.419934e-04   1.362723e-01   1.941515e-04  
 7.723087e-08   3.707082e-01   3.751643e-04   1.324069e-01   1.663889e-04  
 7.823087e-08   3.755082e-01   3.186050e-04   1.285805e-01   1.425876e-04  
 7.923087e-08   3.803082e-01   2.707178e-04   1.247948e-01   1.221912e-04  
 8.023087e-08   3.851082e-01   2.301560e-04   1.210525e-01   1.047189e-04  
 8.123087e-08   3.899082e-01   1.957837e-04   1.173576e-01   8.975529e-05  
 8.223087e-08   3.947082e-01   1.666435e-04   1.137155e-01   7.694279e-05  
 8.323087e-08   3.995082e-01   1.419277e-04   1.101334e-01   6.597374e-05  
 8.423087e-08   4.043082e-01   1.209548e-04   1.066212e-01   5.658378e-05  
 8.523087e-08   4.091082e-01   1.031498e-04   1.031919e-01   4.854601e-05  
 8.623087e-08   4.139082e-01   8.802722e-05   9.986228e-02   4.166583e-05  
 8.723087e-08   4.187082e-01   7.517709e-05   9.665395e-02   3.577645e-05  
 8.823087e-08   4.235082e-01   6.425302e-05   9.359313e-02   3.073500e-05  
 8.923087e-08   4.283082e-01   5.496222e-05   9.070954e-02   2.641917e-05  
 9.023087e-08   4.331082e-01   4.705707e-05   8.803330e-02   2.272425e-05  
 9.123087e-08   4.379082e-01   4.032808e-05   8.558987e-02   1.956064e-05  
 9.223087e-08   4.427082e-01   3.459788e-05   8.339462e-02   1.685169e-05  
 9.323087e-08   4.475082e-01   2.971627e-05   8.144924e-02   1.453183e-05  
 9.423087e-08   4.523082e-01   2.555596e-05   7.974201e-02   1.254495e-05  
 9.523087e-08   4.571082e-01   2.200904e-05   7.825152e-02   1.084308e-05  
 9.623087e-08   4.619082e-01   1.898396e-05   7.695144e-02   9.385162e-06  
 9.723087e-08   4.667082e-01   1.640303e-05   7.581477e-02   8.136088e-06  
 9.823087e-08   4.715082e-01   1.420029e-05   7.481642e-02   7.065820e-06  
 9.923087e-08   4.763082e-01   1.231969e-05   7.393447e-02   6.148659e-06  
 1.000000e-07   4.800000e-01   1.106227e-05   7.332358e-02   5.533483e-06  
