
time (s)       getData("/nvtc getData("/SNMh getData("/SNMr getData("/SNMw

 0.000000e+00   0.000000e+00   6.599786e-01   6.599786e-01   2.137877e-01  
 1.779240e-11   1.174298e-04   6.599806e-01   6.599806e-01   2.135959e-01  
 3.109495e-11   2.052266e-04   6.599806e-01   6.599806e-01   2.134415e-01  
 5.023091e-11   3.315240e-04   6.599805e-01   6.599805e-01   2.132183e-01  
 8.850284e-11   5.841187e-04   6.599803e-01   6.599803e-01   2.127730e-01  
 1.650466e-10   1.089308e-03   6.599799e-01   6.599799e-01   2.118874e-01  
 3.181344e-10   2.099687e-03   6.599792e-01   6.599792e-01   2.101369e-01  
 6.243098e-10   4.120444e-03   6.599777e-01   6.599777e-01   2.067202e-01  
 1.074685e-09   7.092922e-03   6.599754e-01   6.599754e-01   2.019069e-01  
 1.585502e-09   1.046431e-02   6.599724e-01   6.599724e-01   1.967638e-01  
 2.129000e-09   1.405140e-02   6.599688e-01   6.599688e-01   1.916633e-01  
 2.697408e-09   1.780289e-02   6.599647e-01   6.599647e-01   1.867270e-01  
 3.284369e-09   2.167684e-02   6.599598e-01   6.599598e-01   1.820291e-01  
 3.892479e-09   2.569036e-02   6.599541e-01   6.599541e-01   1.775491e-01  
 4.529606e-09   2.989540e-02   6.599473e-01   6.599474e-01   1.732262e-01  
 5.204829e-09   3.435187e-02   6.599391e-01   6.599391e-01   1.689993e-01  
 5.928571e-09   3.912857e-02   6.599289e-01   6.599289e-01   1.648083e-01  
 6.712792e-09   4.430443e-02   6.599159e-01   6.599160e-01   1.605932e-01  
 7.570851e-09   4.996762e-02   6.598991e-01   6.598992e-01   1.562963e-01  
 8.517773e-09   5.621730e-02   6.598768e-01   6.598768e-01   1.518598e-01  
 9.517773e-09   6.281730e-02   6.598479e-01   6.598479e-01   1.474505e-01  
 1.051777e-08   6.941730e-02   6.598123e-01   6.598124e-01   1.432668e-01  
 1.151777e-08   7.601730e-02   6.597687e-01   6.597687e-01   1.392644e-01  
 1.251777e-08   8.261730e-02   6.597150e-01   6.597151e-01   1.354104e-01  
 1.351777e-08   8.921730e-02   6.596492e-01   6.596493e-01   1.316795e-01  
 1.451777e-08   9.581730e-02   6.595684e-01   6.595685e-01   1.280522e-01  
 1.551777e-08   1.024173e-01   6.594695e-01   6.594697e-01   1.245132e-01  
 1.651777e-08   1.090173e-01   6.593486e-01   6.593488e-01   1.210501e-01  
 1.751777e-08   1.156173e-01   6.592011e-01   6.592013e-01   1.176530e-01  
 1.851777e-08   1.222173e-01   6.590214e-01   6.590217e-01   1.143136e-01  
 1.951777e-08   1.288173e-01   6.588032e-01   6.588035e-01   1.110248e-01  
 2.051777e-08   1.354173e-01   6.585390e-01   6.585395e-01   1.077806e-01  
 2.151777e-08   1.420173e-01   6.582204e-01   6.582209e-01   1.045754e-01  
 2.251777e-08   1.486173e-01   6.578378e-01   6.578385e-01   1.014042e-01  
 2.351777e-08   1.552173e-01   6.573806e-01   6.573814e-01   9.826234e-02  
 2.451777e-08   1.618173e-01   6.568373e-01   6.568384e-01   9.514512e-02  
 2.551777e-08   1.684173e-01   6.561958e-01   6.561971e-01   9.204799e-02  
 2.651777e-08   1.750173e-01   6.554433e-01   6.554448e-01   8.896639e-02  
 2.751777e-08   1.816173e-01   6.545668e-01   6.545687e-01   8.589568e-02  
 2.851777e-08   1.882173e-01   6.535534e-01   6.535557e-01   8.283123e-02  
 2.951777e-08   1.948173e-01   6.523904e-01   6.523931e-01   7.976842e-02  
 3.051777e-08   2.014173e-01   6.510654e-01   6.510687e-01   7.670275e-02  
 3.151777e-08   2.080173e-01   6.495663e-01   6.495702e-01   7.363000e-02  
 3.251777e-08   2.146173e-01   6.478806e-01   6.478853e-01   7.054638e-02  
 3.351777e-08   2.212173e-01   6.459951e-01   6.460007e-01   6.744874e-02  
 3.451777e-08   2.278173e-01   6.438949e-01   6.439013e-01   6.433471e-02  
 3.551777e-08   2.344173e-01   6.415613e-01   6.415689e-01   6.120299e-02  
 3.651777e-08   2.410173e-01   6.389700e-01   6.389789e-01   5.805352e-02  
 3.751777e-08   2.476173e-01   6.360868e-01   6.360973e-01   5.488786e-02  
 3.851777e-08   2.542173e-01   6.328608e-01   6.328733e-01   5.170962e-02  
 3.951777e-08   2.608173e-01   6.292109e-01   6.292261e-01   4.852532e-02  
 4.051777e-08   2.674173e-01   6.249958e-01   6.250152e-01   4.534580e-02  
 4.151777e-08   2.740173e-01   6.199403e-01   6.199665e-01   4.218856e-02  
 4.246076e-08   2.802410e-01   6.138330e-01   6.138728e-01   3.925618e-02  
 4.290344e-08   2.831627e-01   6.101678e-01   6.102200e-01   3.790392e-02  
 4.328330e-08   2.856697e-01   6.063088e-01   6.063796e-01   3.676031e-02  
 4.361955e-08   2.878890e-01   6.020312e-01   6.021310e-01   3.576337e-02  
 4.386591e-08   2.895150e-01   5.981122e-01   5.982489e-01   3.504343e-02  
 4.404239e-08   2.906798e-01   5.947250e-01   5.949029e-01   3.453366e-02  
 4.418673e-08   2.916324e-01   5.914888e-01   5.917149e-01   3.412069e-02  
 4.432035e-08   2.925143e-01   5.880400e-01   5.883275e-01   3.374171e-02  
 4.444673e-08   2.933484e-01   5.843153e-01   5.846812e-01   3.338629e-02  
 4.457198e-08   2.941750e-01   5.801353e-01   5.806047e-01   3.303711e-02  
 4.471591e-08   2.951250e-01   5.747021e-01   5.753311e-01   3.263967e-02  
 4.489745e-08   2.963232e-01   5.669130e-01   5.678246e-01   3.214442e-02  
 4.506457e-08   2.974261e-01   5.589216e-01   5.601997e-01   3.169471e-02  
 4.518816e-08   2.982418e-01   5.525903e-01   5.542252e-01   3.136602e-02  
 4.529286e-08   2.989329e-01   5.469965e-01   5.490057e-01   3.109022e-02  
 4.540448e-08   2.996696e-01   5.408392e-01   5.433355e-01   3.079889e-02  
 4.552671e-08   3.004762e-01   5.339061e-01   5.370609e-01   3.048316e-02  
 4.564835e-08   3.012791e-01   5.268417e-01   5.308062e-01   3.017231e-02  
 4.577191e-08   3.020946e-01   5.195272e-01   5.244998e-01   2.986009e-02  
 4.590582e-08   3.029784e-01   5.114683e-01   5.177768e-01   2.952575e-02  
 4.605285e-08   3.039488e-01   5.024870e-01   5.105925e-01   2.916349e-02  
 4.621264e-08   3.050034e-01   4.925938e-01   5.030853e-01   2.877553e-02  
 4.639094e-08   3.061802e-01   4.814180e-01   4.951407e-01   2.834972e-02  
 4.660368e-08   3.075843e-01   4.679249e-01   4.863080e-01   2.785135e-02  
 4.686438e-08   3.093049e-01   4.511962e-01   4.764493e-01   2.725487e-02  
 4.714069e-08   3.111286e-01   4.332756e-01   4.670792e-01   2.663945e-02  
 4.743065e-08   3.130423e-01   4.143027e-01   4.582845e-01   2.601173e-02  
 4.774405e-08   3.151107e-01   3.936476e-01   4.497715e-01   2.535336e-02  
 4.808327e-08   3.173496e-01   3.711655e-01   4.414938e-01   2.466330e-02  
 4.845746e-08   3.198192e-01   3.462729e-01   4.332550e-01   2.392788e-02  
 4.887742e-08   3.225910e-01   3.182954e-01   4.248768e-01   2.313277e-02  
 4.935038e-08   3.257125e-01   2.868412e-01   4.162898e-01   2.227297e-02  
 4.988585e-08   3.292466e-01   2.514526e-01   4.073996e-01   2.134144e-02  
 5.049518e-08   3.332682e-01   2.117139e-01   3.981059e-01   2.033074e-02  
 5.119012e-08   3.378548e-01   1.675088e-01   3.883254e-01   1.923588e-02  
 5.190530e-08   3.425749e-01   1.240533e-01   3.789672e-01   1.816694e-02  
 5.229475e-08   3.451453e-01   1.019233e-01   3.741182e-01   1.760740e-02  
 5.264040e-08   3.474266e-01   8.407335e-02   3.699406e-01   1.712325e-02  
 5.280866e-08   3.485371e-01   7.640070e-02   3.679467e-01   1.689164e-02  
 5.294854e-08   3.494604e-01   7.071055e-02   3.663076e-01   1.670106e-02  
 5.313148e-08   3.506677e-01   6.433687e-02   3.641886e-01   1.645449e-02  
 5.332346e-08   3.519348e-01   5.893614e-02   3.619935e-01   1.619890e-02  
 5.351263e-08   3.531834e-01   5.471963e-02   3.598581e-01   1.595013e-02  
 5.367017e-08   3.542231e-01   5.186634e-02   3.580998e-01   1.574529e-02  
 5.381324e-08   3.551674e-01   4.967289e-02   3.565181e-01   1.556102e-02  
 5.397212e-08   3.562160e-01   4.757966e-02   3.547782e-01   1.535835e-02  
 5.415784e-08   3.574417e-01   4.548318e-02   3.527654e-01   1.512400e-02  
 5.436260e-08   3.587931e-01   4.350129e-02   3.505719e-01   1.486877e-02  
 5.459128e-08   3.603024e-01   4.159099e-02   3.481524e-01   1.458753e-02  
 5.486427e-08   3.621042e-01   3.961791e-02   3.453044e-01   1.425694e-02  
 5.519899e-08   3.643133e-01   3.752851e-02   3.418692e-01   1.385905e-02  
 5.560748e-08   3.670094e-01   3.532715e-02   3.377567e-01   1.338425e-02  
 5.611312e-08   3.703466e-01   3.297153e-02   3.327801e-01   1.281237e-02  
 5.675678e-08   3.745947e-01   3.037824e-02   3.266135e-01   1.210873e-02  
 5.759050e-08   3.800973e-01   2.747747e-02   3.188821e-01   1.123598e-02  
 5.859050e-08   3.866973e-01   2.446540e-02   3.099529e-01   1.024381e-02  
 5.959050e-08   3.932973e-01   2.181833e-02   3.013622e-01   9.308311e-03  
 6.059050e-08   3.998973e-01   1.944996e-02   2.930788e-01   8.427057e-03  
 6.159050e-08   4.064973e-01   1.730928e-02   2.850784e-01   7.598248e-03  
 6.259050e-08   4.130973e-01   1.536350e-02   2.773413e-01   6.820583e-03  
 6.359050e-08   4.196973e-01   1.359028e-02   2.698515e-01   6.093169e-03  
 6.459050e-08   4.262973e-01   1.197373e-02   2.625957e-01   5.415406e-03  
 6.559050e-08   4.328973e-01   1.050209e-02   2.555627e-01   4.786876e-03  
 6.659050e-08   4.394973e-01   9.166227e-03   2.487424e-01   4.207217e-03  
 6.759050e-08   4.460973e-01   7.958617e-03   2.421254e-01   3.675990e-03  
 6.859050e-08   4.526973e-01   6.872634e-03   2.357031e-01   3.192554e-03  
 6.959050e-08   4.592973e-01   5.901980e-03   2.294665e-01   2.755952e-03  
 7.059050e-08   4.658973e-01   5.040308e-03   2.234073e-01   2.364830e-03  
 7.159050e-08   4.724973e-01   4.280968e-03   2.175168e-01   2.017386e-03  
 7.259050e-08   4.790973e-01   3.616891e-03   2.117870e-01   1.711369e-03  
 7.359050e-08   4.856973e-01   3.040587e-03   2.062102e-01   1.444117e-03  
 7.459050e-08   4.922973e-01   2.544243e-03   2.007794e-01   1.212638e-03  
 7.559050e-08   4.988973e-01   2.119881e-03   1.954892e-01   1.013716e-03  
 7.659050e-08   5.054973e-01   1.759552e-03   1.903355e-01   8.440235e-04  
 7.759050e-08   5.120973e-01   1.455532e-03   1.853164e-01   7.002389e-04  
 7.859050e-08   5.186973e-01   1.200494e-03   1.804325e-01   5.791463e-04  
 7.959050e-08   5.252973e-01   9.876410e-04   1.756879e-01   4.777150e-04  
 8.059050e-08   5.318973e-01   8.107912e-04   1.710907e-01   3.931546e-04  
 8.159050e-08   5.384973e-01   6.644260e-04   1.666543e-01   3.229482e-04  
 8.259050e-08   5.450973e-01   5.436930e-04   1.623984e-01   2.648638e-04  
 8.359050e-08   5.516973e-01   4.443832e-04   1.583497e-01   2.169516e-04  
 8.459050e-08   5.582973e-01   3.628875e-04   1.545417e-01   1.775295e-04  
 8.559050e-08   5.648973e-01   2.961409e-04   1.510122e-01   1.451609e-04  
 8.659050e-08   5.714973e-01   2.415622e-04   1.477971e-01   1.186299e-04  
 8.759050e-08   5.780973e-01   1.969917e-04   1.449223e-01   9.691514e-05  
 8.859050e-08   5.846973e-01   1.606328e-04   1.423960e-01   7.916304e-05  
 8.959050e-08   5.912973e-01   1.309980e-04   1.402059e-01   6.466449e-05  
 9.059050e-08   5.978973e-01   1.068602e-04   1.383228e-01   5.283243e-05  
 9.159050e-08   6.044973e-01   8.721026e-05   1.367082e-01   4.318256e-05  
 9.259050e-08   6.110973e-01   7.122043e-05   1.353218e-01   3.531642e-05  
 9.359050e-08   6.176973e-01   5.821316e-05   1.341256e-01   2.890692e-05  
 9.459050e-08   6.242973e-01   4.763467e-05   1.330869e-01   2.368602e-05  
 9.559050e-08   6.308973e-01   3.903299e-05   1.321784e-01   1.943440e-05  
 9.659050e-08   6.374973e-01   3.203961e-05   1.313779e-01   1.597282e-05  
 9.759050e-08   6.440973e-01   2.635432e-05   1.306673e-01   1.315493e-05  
 9.859050e-08   6.506973e-01   2.173270e-05   1.300325e-01   1.086132e-05  
 9.929525e-08   6.553486e-01   1.900530e-05   1.296241e-01   9.506377e-06  
 1.000000e-07   6.600000e-01   1.664842e-05   1.292440e-01   8.334543e-06  
