
time (s)       getData("/nvtc getData("/SNMh getData("/SNMr getData("/SNMw

 0.000000e+00   0.000000e+00   7.499742e-01   7.499742e-01   2.561473e-01  
 1.676106e-11   1.257079e-04   7.499764e-01   7.499764e-01   2.559753e-01  
 2.919029e-11   2.189271e-04   7.499764e-01   7.499764e-01   2.558384e-01  
 4.736499e-11   3.552374e-04   7.499763e-01   7.499763e-01   2.556375e-01  
 8.371439e-11   6.278579e-04   7.499760e-01   7.499761e-01   2.552365e-01  
 1.564131e-10   1.173098e-03   7.499756e-01   7.499756e-01   2.544382e-01  
 3.018107e-10   2.263580e-03   7.499747e-01   7.499747e-01   2.528569e-01  
 5.926059e-10   4.444544e-03   7.499727e-01   7.499727e-01   2.497564e-01  
 1.094586e-09   8.209400e-03   7.499691e-01   7.499691e-01   2.446049e-01  
 1.693646e-09   1.270235e-02   7.499641e-01   7.499641e-01   2.387979e-01  
 2.338181e-09   1.753635e-02   7.499579e-01   7.499579e-01   2.329624e-01  
 3.022903e-09   2.267177e-02   7.499502e-01   7.499502e-01   2.272116e-01  
 3.739483e-09   2.804612e-02   7.499407e-01   7.499407e-01   2.216485e-01  
 4.489162e-09   3.366871e-02   7.499289e-01   7.499289e-01   2.162702e-01  
 5.282707e-09   3.962030e-02   7.499140e-01   7.499140e-01   2.109998e-01  
 6.132977e-09   4.599733e-02   7.498946e-01   7.498946e-01   2.057562e-01  
 7.054593e-09   5.290944e-02   7.498688e-01   7.498689e-01   2.004585e-01  
 8.054593e-09   6.040944e-02   7.498339e-01   7.498339e-01   1.950750e-01  
 9.054593e-09   6.790944e-02   7.497898e-01   7.497899e-01   1.899939e-01  
 1.005459e-08   7.540944e-02   7.497343e-01   7.497344e-01   1.851542e-01  
 1.105459e-08   8.290944e-02   7.496646e-01   7.496647e-01   1.805090e-01  
 1.205459e-08   9.040944e-02   7.495771e-01   7.495772e-01   1.760224e-01  
 1.305459e-08   9.790944e-02   7.494673e-01   7.494675e-01   1.716663e-01  
 1.405459e-08   1.054094e-01   7.493301e-01   7.493303e-01   1.674186e-01  
 1.505459e-08   1.129094e-01   7.491589e-01   7.491592e-01   1.632614e-01  
 1.605459e-08   1.204094e-01   7.489461e-01   7.489464e-01   1.591801e-01  
 1.705459e-08   1.279094e-01   7.486827e-01   7.486831e-01   1.551624e-01  
 1.805459e-08   1.354094e-01   7.483581e-01   7.483586e-01   1.511978e-01  
 1.905459e-08   1.429094e-01   7.479606e-01   7.479612e-01   1.472767e-01  
 2.005459e-08   1.504094e-01   7.474769e-01   7.474776e-01   1.433907e-01  
 2.105459e-08   1.579094e-01   7.468929e-01   7.468938e-01   1.395314e-01  
 2.205459e-08   1.654094e-01   7.461939e-01   7.461951e-01   1.356909e-01  
 2.305459e-08   1.729094e-01   7.453654e-01   7.453668e-01   1.318613e-01  
 2.405459e-08   1.804094e-01   7.443933e-01   7.443951e-01   1.280348e-01  
 2.505459e-08   1.879094e-01   7.432652e-01   7.432674e-01   1.242036e-01  
 2.605459e-08   1.954094e-01   7.419702e-01   7.419728e-01   1.203598e-01  
 2.705459e-08   2.029094e-01   7.404999e-01   7.405030e-01   1.164962e-01  
 2.805459e-08   2.104094e-01   7.388477e-01   7.388515e-01   1.126058e-01  
 2.905459e-08   2.179094e-01   7.370092e-01   7.370136e-01   1.086826e-01  
 3.005459e-08   2.254094e-01   7.349807e-01   7.349859e-01   1.047216e-01  
 3.105459e-08   2.329094e-01   7.327591e-01   7.327650e-01   1.007191e-01  
 3.205459e-08   2.404094e-01   7.303402e-01   7.303470e-01   9.667291e-02  
 3.305459e-08   2.479094e-01   7.277181e-01   7.277260e-01   9.258210e-02  
 3.405459e-08   2.554094e-01   7.248838e-01   7.248928e-01   8.844730e-02  
 3.505459e-08   2.629094e-01   7.218234e-01   7.218338e-01   8.427047e-02  
 3.605459e-08   2.704094e-01   7.185166e-01   7.185287e-01   8.005491e-02  
 3.705459e-08   2.779094e-01   7.149332e-01   7.149474e-01   7.580542e-02  
 3.805459e-08   2.854094e-01   7.110277e-01   7.110446e-01   7.152867e-02  
 3.905459e-08   2.929094e-01   7.067291e-01   7.067497e-01   6.723400e-02  
 4.005459e-08   3.004094e-01   7.019189e-01   7.019447e-01   6.293516e-02  
 4.105459e-08   3.079094e-01   6.963797e-01   6.964139e-01   5.865346e-02  
 4.205459e-08   3.154094e-01   6.896545e-01   6.897045e-01   5.442338e-02  
 4.260252e-08   3.195189e-01   6.850960e-01   6.851625e-01   5.214644e-02  
 4.307579e-08   3.230684e-01   6.802967e-01   6.803885e-01   5.021499e-02  
 4.348726e-08   3.261544e-01   6.750510e-01   6.751841e-01   4.857011e-02  
 4.377812e-08   3.283359e-01   6.703712e-01   6.705579e-01   4.743067e-02  
 4.398218e-08   3.298663e-01   6.663732e-01   6.666214e-01   4.664433e-02  
 4.414469e-08   3.310851e-01   6.626246e-01   6.629457e-01   4.602650e-02  
 4.429005e-08   3.321754e-01   6.587428e-01   6.591566e-01   4.548050e-02  
 4.442352e-08   3.331764e-01   6.546607e-01   6.551926e-01   4.498500e-02  
 4.455248e-08   3.341436e-01   6.501870e-01   6.508740e-01   4.451173e-02  
 4.469399e-08   3.352049e-01   6.446359e-01   6.455556e-01   4.399880e-02  
 4.488127e-08   3.366095e-01   6.362469e-01   6.376119e-01   4.333062e-02  
 4.508152e-08   3.381114e-01   6.260650e-01   6.281485e-01   4.263001e-02  
 4.522273e-08   3.391704e-01   6.182432e-01   6.210391e-01   4.214479e-02  
 4.533109e-08   3.399831e-01   6.119412e-01   6.154319e-01   4.177748e-02  
 4.544082e-08   3.408062e-01   6.053335e-01   6.096856e-01   4.140999e-02  
 4.556572e-08   3.417429e-01   5.975760e-01   6.031339e-01   4.099724e-02  
 4.568914e-08   3.426686e-01   5.896993e-01   5.967191e-01   4.059520e-02  
 4.581050e-08   3.435788e-01   5.817790e-01   5.905301e-01   4.020549e-02  
 4.594240e-08   3.445680e-01   5.730011e-01   5.839939e-01   3.978825e-02  
 4.609377e-08   3.457033e-01   5.627391e-01   5.767932e-01   3.931747e-02  
 4.626774e-08   3.470081e-01   5.507317e-01   5.689648e-01   3.878692e-02  
 4.647967e-08   3.485975e-01   5.358424e-01   5.601024e-01   3.815556e-02  
 4.674494e-08   3.505870e-01   5.168660e-01   5.500128e-01   3.738781e-02  
 4.703259e-08   3.527444e-01   4.959399e-01   5.401921e-01   3.658251e-02  
 4.734142e-08   3.550606e-01   4.731510e-01   5.307284e-01   3.574787e-02  
 4.767696e-08   3.575772e-01   4.481002e-01   5.214610e-01   3.487406e-02  
 4.805010e-08   3.603757e-01   4.199898e-01   5.121257e-01   3.393981e-02  
 4.847386e-08   3.635539e-01   3.878764e-01   5.024784e-01   3.292262e-02  
 4.895454e-08   3.671590e-01   3.513908e-01   4.924733e-01   3.181975e-02  
 4.950203e-08   3.712652e-01   3.100215e-01   4.820002e-01   3.062233e-02  
 5.012848e-08   3.759636e-01   2.633361e-01   4.709349e-01   2.931973e-02  
 5.084554e-08   3.813416e-01   2.114141e-01   4.591907e-01   2.790576e-02  
 5.153962e-08   3.865472e-01   1.636080e-01   4.485565e-01   2.660536e-02  
 5.213280e-08   3.909960e-01   1.258626e-01   4.399333e-01   2.554105e-02  
 5.240847e-08   3.930635e-01   1.099793e-01   4.360522e-01   2.505995e-02  
 5.264397e-08   3.948298e-01   9.778127e-02   4.327945e-01   2.465535e-02  
 5.285341e-08   3.964006e-01   8.839633e-02   4.299397e-01   2.430031e-02  
 5.302599e-08   3.976949e-01   8.188578e-02   4.276161e-01   2.401106e-02  
 5.321443e-08   3.991082e-01   7.604093e-02   4.251074e-01   2.369853e-02  
 5.341733e-08   4.006300e-01   7.102947e-02   4.224378e-01   2.336577e-02  
 5.358480e-08   4.018860e-01   6.768649e-02   4.202584e-01   2.309400e-02  
 5.373175e-08   4.029881e-01   6.520656e-02   4.183634e-01   2.285762e-02  
 5.389202e-08   4.041901e-01   6.287428e-02   4.163143e-01   2.260199e-02  
 5.408118e-08   4.056089e-01   6.050622e-02   4.139190e-01   2.230315e-02  
 5.429027e-08   4.071770e-01   5.825413e-02   4.112998e-01   2.197639e-02  
 5.452102e-08   4.089076e-01   5.609938e-02   4.084423e-01   2.162000e-02  
 5.479434e-08   4.109576e-01   5.387697e-02   4.051009e-01   2.120344e-02  
 5.512962e-08   4.134722e-01   5.150446e-02   4.010633e-01   2.070049e-02  
 5.553836e-08   4.165377e-01   4.898608e-02   3.962276e-01   2.009893e-02  
 5.604181e-08   4.203136e-01   4.627717e-02   3.903939e-01   1.937477e-02  
 5.668018e-08   4.251013e-01   4.327008e-02   3.831779e-01   1.848204e-02  
 5.750533e-08   4.312900e-01   3.986303e-02   3.741258e-01   1.736816e-02  
 5.850533e-08   4.387900e-01   3.622714e-02   3.635331e-01   1.607528e-02  
 5.950533e-08   4.462900e-01   3.297373e-02   3.533148e-01   1.484124e-02  
 6.050533e-08   4.537900e-01   3.000782e-02   3.434375e-01   1.366289e-02  
 6.150533e-08   4.612900e-01   2.727340e-02   3.338748e-01   1.253771e-02  
 6.250533e-08   4.687900e-01   2.473455e-02   3.246062e-01   1.146382e-02  
 6.350533e-08   4.762900e-01   2.236702e-02   3.156152e-01   1.043983e-02  
 6.450533e-08   4.837900e-01   2.015402e-02   3.068896e-01   9.464923e-03  
 6.550533e-08   4.912900e-01   1.808383e-02   2.984202e-01   8.538752e-03  
 6.650533e-08   4.987900e-01   1.614840e-02   2.902002e-01   7.661467e-03  
 6.750533e-08   5.062900e-01   1.434240e-02   2.822251e-01   6.833641e-03  
 6.850533e-08   5.137900e-01   1.266256e-02   2.744918e-01   6.056202e-03  
 6.950533e-08   5.212900e-01   1.110706e-02   2.669982e-01   5.330313e-03  
 7.050533e-08   5.287900e-01   9.674985e-03   2.597426e-01   4.657222e-03  
 7.150533e-08   5.362900e-01   8.365764e-03   2.527233e-01   4.038062e-03  
 7.250533e-08   5.437900e-01   7.178638e-03   2.459381e-01   3.473642e-03  
 7.350533e-08   5.512900e-01   6.112130e-03   2.393843e-01   2.964232e-03  
 7.450533e-08   5.587900e-01   5.163613e-03   2.330586e-01   2.509375e-03  
 7.550533e-08   5.662900e-01   4.329016e-03   2.269577e-01   2.107766e-03  
 7.650533e-08   5.737900e-01   3.602705e-03   2.210786e-01   1.757212e-03  
 7.750533e-08   5.812900e-01   2.977563e-03   2.154199e-01   1.454690e-03  
 7.850533e-08   5.887900e-01   2.445248e-03   2.099829e-01   1.196483e-03  
 7.950533e-08   5.962900e-01   1.996571e-03   2.047730e-01   9.783847e-04  
 8.050533e-08   6.037900e-01   1.621939e-03   1.998015e-01   7.959272e-04  
 8.150533e-08   6.112900e-01   1.311791e-03   1.950870e-01   6.446047e-04  
 8.250533e-08   6.187900e-01   1.056961e-03   1.906562e-01   5.200634e-04  
 8.350533e-08   6.262900e-01   8.489522e-04   1.865425e-01   4.182441e-04  
 8.450533e-08   6.337900e-01   6.801138e-04   1.827823e-01   3.354742e-04  
 8.550533e-08   6.412900e-01   5.437171e-04   1.794065e-01   2.685121e-04  
 8.650533e-08   6.487900e-01   4.339620e-04   1.764310e-01   2.145551e-04  
 8.750533e-08   6.562900e-01   3.459309e-04   1.738502e-01   1.712207e-04  
 8.850533e-08   6.637900e-01   2.755107e-04   1.716369e-01   1.365115e-04  
 8.950533e-08   6.712900e-01   2.192987e-04   1.697497e-01   1.087716e-04  
 9.050533e-08   6.787900e-01   1.745054e-04   1.681415e-01   8.664100e-05  
 9.150533e-08   6.862900e-01   1.388602e-04   1.667664e-01   6.901034e-05  
 9.250533e-08   6.937900e-01   1.105256e-04   1.655838e-01   5.498064e-05  
 9.350533e-08   7.012900e-01   8.802154e-05   1.645595e-01   4.382651e-05  
 9.450533e-08   7.087900e-01   7.016024e-05   1.636654e-01   3.496494e-05  
 9.550533e-08   7.162900e-01   5.599127e-05   1.628792e-01   2.792873e-05  
 9.650533e-08   7.237900e-01   4.475591e-05   1.621827e-01   2.234439e-05  
 9.750533e-08   7.312900e-01   3.584953e-05   1.615618e-01   1.791392e-05  
 9.850533e-08   7.387900e-01   2.879104e-05   1.610046e-01   1.439989e-05  
 9.925266e-08   7.443950e-01   2.449077e-05   1.606243e-01   1.225759e-05  
 1.000000e-07   7.500000e-01   2.087726e-05   1.602711e-01   1.045646e-05  
