
time (s)       getData("/nvtc getData("/SNMh getData("/SNMr getData("/SNMw

 0.000000e+00   0.000000e+00   7.399445e-01   7.399445e-01   2.617211e-01  
 1.686608e-11   1.248090e-04   7.399466e-01   7.399466e-01   2.615592e-01  
 2.938408e-11   2.174422e-04   7.399465e-01   7.399465e-01   2.614306e-01  
 4.765704e-11   3.526621e-04   7.399463e-01   7.399463e-01   2.612421e-01  
 8.420296e-11   6.231019e-04   7.399459e-01   7.399459e-01   2.608658e-01  
 1.572947e-10   1.163981e-03   7.399450e-01   7.399450e-01   2.601166e-01  
 3.034784e-10   2.245740e-03   7.399431e-01   7.399431e-01   2.586314e-01  
 5.958458e-10   4.409259e-03   7.399392e-01   7.399393e-01   2.557150e-01  
 1.128239e-09   8.348975e-03   7.399316e-01   7.399316e-01   2.505941e-01  
 1.774736e-09   1.313304e-02   7.399210e-01   7.399210e-01   2.447111e-01  
 2.473919e-09   1.830700e-02   7.399077e-01   7.399078e-01   2.387580e-01  
 3.221689e-09   2.384050e-02   7.398911e-01   7.398912e-01   2.328379e-01  
 4.009230e-09   2.966830e-02   7.398705e-01   7.398706e-01   2.270577e-01  
 4.837441e-09   3.579706e-02   7.398448e-01   7.398449e-01   2.214208e-01  
 5.718476e-09   4.231672e-02   7.398119e-01   7.398120e-01   2.158478e-01  
 6.666969e-09   4.933557e-02   7.397688e-01   7.397689e-01   2.102529e-01  
 7.666969e-09   5.673557e-02   7.397128e-01   7.397130e-01   2.047241e-01  
 8.666969e-09   6.413557e-02   7.396437e-01   7.396439e-01   1.995013e-01  
 9.666969e-09   7.153557e-02   7.395583e-01   7.395586e-01   1.945251e-01  
 1.066696e-08   7.893557e-02   7.394530e-01   7.394533e-01   1.897490e-01  
 1.166696e-08   8.633557e-02   7.393234e-01   7.393238e-01   1.851364e-01  
 1.266696e-08   9.373557e-02   7.391642e-01   7.391647e-01   1.806584e-01  
 1.366696e-08   1.011355e-01   7.389692e-01   7.389699e-01   1.762919e-01  
 1.466696e-08   1.085355e-01   7.387311e-01   7.387319e-01   1.720179e-01  
 1.566696e-08   1.159355e-01   7.384415e-01   7.384425e-01   1.678209e-01  
 1.666696e-08   1.233355e-01   7.380907e-01   7.380919e-01   1.636875e-01  
 1.766696e-08   1.307355e-01   7.376680e-01   7.376695e-01   1.596063e-01  
 1.866696e-08   1.381355e-01   7.371617e-01   7.371635e-01   1.555668e-01  
 1.966696e-08   1.455355e-01   7.365593e-01   7.365616e-01   1.515595e-01  
 2.066696e-08   1.529355e-01   7.358480e-01   7.358508e-01   1.475757e-01  
 2.166696e-08   1.603355e-01   7.350149e-01   7.350183e-01   1.436068e-01  
 2.266696e-08   1.677355e-01   7.340478e-01   7.340519e-01   1.396446e-01  
 2.366696e-08   1.751355e-01   7.329351e-01   7.329400e-01   1.356811e-01  
 2.466696e-08   1.825355e-01   7.316670e-01   7.316730e-01   1.317086e-01  
 2.566696e-08   1.899355e-01   7.302353e-01   7.302424e-01   1.277200e-01  
 2.666696e-08   1.973355e-01   7.286334e-01   7.286417e-01   1.237086e-01  
 2.766696e-08   2.047355e-01   7.268562e-01   7.268659e-01   1.196683e-01  
 2.866696e-08   2.121355e-01   7.249000e-01   7.249112e-01   1.155943e-01  
 2.966696e-08   2.195355e-01   7.227615e-01   7.227744e-01   1.114828e-01  
 3.066696e-08   2.269355e-01   7.204373e-01   7.204521e-01   1.073310e-01  
 3.166696e-08   2.343355e-01   7.179232e-01   7.179401e-01   1.031375e-01  
 3.266696e-08   2.417355e-01   7.152132e-01   7.152325e-01   9.890230e-02  
 3.366696e-08   2.491355e-01   7.122986e-01   7.123205e-01   9.462632e-02  
 3.466696e-08   2.565355e-01   7.091665e-01   7.091917e-01   9.031181e-02  
 3.566696e-08   2.639355e-01   7.057988e-01   7.058278e-01   8.596221e-02  
 3.666696e-08   2.713355e-01   7.021691e-01   7.022028e-01   8.158226e-02  
 3.766696e-08   2.787355e-01   6.982388e-01   6.982785e-01   7.717846e-02  
 3.866696e-08   2.861355e-01   6.939496e-01   6.939972e-01   7.275980e-02  
 3.966696e-08   2.935355e-01   6.892085e-01   6.892671e-01   6.833931e-02  
 4.066696e-08   3.009355e-01   6.838549e-01   6.839299e-01   6.393678e-02  
 4.166696e-08   3.083355e-01   6.775810e-01   6.776837e-01   5.958350e-02  
 4.260359e-08   3.152665e-01   6.702609e-01   6.704155e-01   5.559447e-02  
 4.306371e-08   3.186714e-01   6.657705e-01   6.659736e-01   5.368400e-02  
 4.345927e-08   3.215986e-01   6.611026e-01   6.613765e-01   5.207628e-02  
 4.380962e-08   3.241912e-01   6.560107e-01   6.563934e-01   5.068403e-02  
 4.407278e-08   3.261386e-01   6.513034e-01   6.518238e-01   4.966049e-02  
 4.426699e-08   3.275757e-01   6.471541e-01   6.478312e-01   4.891844e-02  
 4.443037e-08   3.287847e-01   6.430967e-01   6.439622e-01   4.830343e-02  
 4.458579e-08   3.299348e-01   6.386605e-01   6.397751e-01   4.772655e-02  
 4.473831e-08   3.310635e-01   6.336833e-01   6.351337e-01   4.716841e-02  
 4.489941e-08   3.322556e-01   6.276971e-01   6.296342e-01   4.658774e-02  
 4.510419e-08   3.337710e-01   6.189835e-01   6.218006e-01   4.586302e-02  
 4.532056e-08   3.353721e-01   6.085232e-01   6.126912e-01   4.511391e-02  
 4.547533e-08   3.365174e-01   6.003590e-01   6.058306e-01   4.458868e-02  
 4.559501e-08   3.374031e-01   5.937182e-01   6.004277e-01   4.418862e-02  
 4.571633e-08   3.383008e-01   5.867374e-01   5.949323e-01   4.378853e-02  
 4.585592e-08   3.393338e-01   5.784391e-01   5.886574e-01   4.333492e-02  
 4.599689e-08   3.403770e-01   5.698135e-01   5.824408e-01   4.288416e-02  
 4.613947e-08   3.414320e-01   5.608755e-01   5.763307e-01   4.243563e-02  
 4.630132e-08   3.426297e-01   5.505072e-01   5.696582e-01   4.193536e-02  
 4.649919e-08   3.440940e-01   5.375599e-01   5.619221e-01   4.133637e-02  
 4.674686e-08   3.459268e-01   5.210047e-01   5.529076e-01   4.060573e-02  
 4.705295e-08   3.481918e-01   5.001081e-01   5.427365e-01   3.973094e-02  
 4.738724e-08   3.506656e-01   4.768507e-01   5.327003e-01   3.880937e-02  
 4.774972e-08   3.533479e-01   4.512407e-01   5.228624e-01   3.784745e-02  
 4.815159e-08   3.563217e-01   4.225056e-01   5.129686e-01   3.682297e-02  
 4.859986e-08   3.596390e-01   3.901907e-01   5.029148e-01   3.572774e-02  
 4.910332e-08   3.633646e-01   3.537788e-01   4.925768e-01   3.455156e-02  
 4.967324e-08   3.675819e-01   3.126981e-01   4.818092e-01   3.328135e-02  
 5.032113e-08   3.723763e-01   2.666016e-01   4.704943e-01   3.190685e-02  
 5.105880e-08   3.778351e-01   2.155869e-01   4.585364e-01   3.042041e-02  
 5.177833e-08   3.831596e-01   1.682858e-01   4.476186e-01   2.904087e-02  
 5.238929e-08   3.876807e-01   1.312744e-01   4.388189e-01   2.791776e-02  
 5.267602e-08   3.898026e-01   1.155980e-01   4.348184e-01   2.740469e-02  
 5.292004e-08   3.916083e-01   1.036193e-01   4.314732e-01   2.697471e-02  
 5.314466e-08   3.932704e-01   9.407511e-02   4.284395e-01   2.658414e-02  
 5.333843e-08   3.947043e-01   8.715896e-02   4.258560e-01   2.625111e-02  
 5.355178e-08   3.962832e-01   8.093485e-02   4.230456e-01   2.588849e-02  
 5.377169e-08   3.979105e-01   7.582689e-02   4.201851e-01   2.551906e-02  
 5.395286e-08   3.992512e-01   7.240306e-02   4.178549e-01   2.521795e-02  
 5.411605e-08   4.004588e-01   6.978413e-02   4.157757e-01   2.494917e-02  
 5.429724e-08   4.017996e-01   6.727422e-02   4.134884e-01   2.465338e-02  
 5.451004e-08   4.033743e-01   6.473650e-02   4.108299e-01   2.430951e-02  
 5.474432e-08   4.051080e-01   6.232726e-02   4.079361e-01   2.393518e-02  
 5.500519e-08   4.070384e-01   5.999612e-02   4.047534e-01   2.352350e-02  
 5.531659e-08   4.093428e-01   5.756870e-02   4.010063e-01   2.303897e-02  
 5.569891e-08   4.121719e-01   5.496987e-02   3.964798e-01   2.245405e-02  
 5.616553e-08   4.156249e-01   5.220071e-02   3.910594e-01   2.175447e-02  
 5.674280e-08   4.198967e-01   4.920029e-02   3.845018e-01   2.090989e-02  
 5.747757e-08   4.253340e-01   4.584750e-02   3.763750e-01   1.986679e-02  
 5.842868e-08   4.323722e-01   4.203339e-02   3.661897e-01   1.856674e-02  
 5.942868e-08   4.397722e-01   3.846801e-02   3.558502e-01   1.725747e-02  
 6.042868e-08   4.471722e-01   3.523485e-02   3.458556e-01   1.600402e-02  
 6.142868e-08   4.545722e-01   3.226110e-02   3.361782e-01   1.480376e-02  
 6.242868e-08   4.619722e-01   2.950137e-02   3.267962e-01   1.365456e-02  
 6.342868e-08   4.693722e-01   2.692547e-02   3.176920e-01   1.255483e-02  
 6.442868e-08   4.767722e-01   2.451244e-02   3.088521e-01   1.150340e-02  
 6.542868e-08   4.841722e-01   2.224745e-02   3.002658e-01   1.049953e-02  
 6.642868e-08   4.915722e-01   2.011986e-02   2.919254e-01   9.542914e-03  
 6.742868e-08   4.989722e-01   1.812218e-02   2.838253e-01   8.633586e-03  
 6.842868e-08   5.063722e-01   1.624919e-02   2.759618e-01   7.771955e-03  
 6.942868e-08   5.137722e-01   1.449749e-02   2.683326e-01   6.958708e-03  
 7.042868e-08   5.211722e-01   1.286494e-02   2.609368e-01   6.194740e-03  
 7.142868e-08   5.285722e-01   1.135030e-02   2.537741e-01   5.481045e-03  
 7.242868e-08   5.359722e-01   9.952790e-03   2.468449e-01   4.818583e-03  
 7.342868e-08   5.433722e-01   8.671674e-03   2.401499e-01   4.208128e-03  
 7.442868e-08   5.507722e-01   7.505882e-03   2.336903e-01   3.650108e-03  
 7.542868e-08   5.581722e-01   6.453633e-03   2.274677e-01   3.144455e-03  
 7.642868e-08   5.655722e-01   5.512152e-03   2.214848e-01   2.690484e-03  
 7.742868e-08   5.729722e-01   4.677485e-03   2.157463e-01   2.286817e-03  
 7.842868e-08   5.803722e-01   3.944442e-03   2.102599e-01   1.931371e-03  
 7.942868e-08   5.877722e-01   3.306674e-03   2.050375e-01   1.621407e-03  
 8.042868e-08   5.951722e-01   2.756863e-03   2.000971e-01   1.353641e-03  
 8.142868e-08   6.025722e-01   2.287010e-03   1.954635e-01   1.124388e-03  
 8.242868e-08   6.099722e-01   1.888757e-03   1.911670e-01   9.297398e-04  
 8.342868e-08   6.173722e-01   1.553709e-03   1.872406e-01   7.657243e-04  
 8.442868e-08   6.247722e-01   1.273728e-03   1.837118e-01   6.284618e-04  
 8.542868e-08   6.321722e-01   1.041148e-03   1.805949e-01   5.142788e-04  
 8.642868e-08   6.395722e-01   8.489447e-04   1.778834e-01   4.197919e-04  
 8.742868e-08   6.469722e-01   6.908123e-04   1.755509e-01   3.419551e-04  
 8.842868e-08   6.543722e-01   5.612028e-04   1.735564e-01   2.780797e-04  
 8.942868e-08   6.617722e-01   4.553084e-04   1.718527e-01   2.258303e-04  
 9.042868e-08   6.691722e-01   3.690188e-04   1.703934e-01   1.832057e-04  
 9.142868e-08   6.765722e-01   2.988584e-04   1.691369e-01   1.485105e-04  
 9.242868e-08   6.839722e-01   2.419148e-04   1.680476e-01   1.203214e-04  
 9.342868e-08   6.913722e-01   1.957660e-04   1.670964e-01   9.745315e-05  
 9.442868e-08   6.987722e-01   1.584102e-04   1.662597e-01   7.892402e-05  
 9.542868e-08   7.061722e-01   1.282011e-04   1.655186e-01   6.392577e-05  
 9.642868e-08   7.135722e-01   1.037903e-04   1.648578e-01   5.179543e-05  
 9.742868e-08   7.209722e-01   8.407711e-05   1.642649e-01   4.199103e-05  
 9.842868e-08   7.283722e-01   6.816527e-05   1.637301e-01   3.407078e-05  
 9.921434e-08   7.341861e-01   5.785134e-05   1.633453e-01   2.893332e-05  
 1.000000e-07   7.400000e-01   4.913949e-05   1.629880e-01   2.459130e-05  
