
time (s)       getData("/nvtc getData("/SNMh getData("/SNMr getData("/SNMw

 0.000000e+00   0.000000e+00   6.299552e-01   6.299552e-01   2.112900e-01  
 1.818546e-11   1.145684e-04   6.299571e-01   6.299571e-01   2.111000e-01  
 3.182182e-11   2.004774e-04   6.299570e-01   6.299570e-01   2.109465e-01  
 5.132219e-11   3.233298e-04   6.299568e-01   6.299569e-01   2.107261e-01  
 9.032294e-11   5.690345e-04   6.299565e-01   6.299565e-01   2.102861e-01  
 1.683244e-10   1.060444e-03   6.299558e-01   6.299559e-01   2.094109e-01  
 3.243274e-10   2.043262e-03   6.299545e-01   6.299545e-01   2.076796e-01  
 6.363334e-10   4.008900e-03   6.299516e-01   6.299517e-01   2.042956e-01  
 1.104450e-09   6.958040e-03   6.299470e-01   6.299471e-01   1.994240e-01  
 1.637569e-09   1.031668e-02   6.299413e-01   6.299413e-01   1.941884e-01  
 2.203575e-09   1.388252e-02   6.299345e-01   6.299346e-01   1.889993e-01  
 2.794433e-09   1.760492e-02   6.299267e-01   6.299267e-01   1.839796e-01  
 3.403128e-09   2.143970e-02   6.299176e-01   6.299177e-01   1.792077e-01  
 4.031887e-09   2.540089e-02   6.299071e-01   6.299072e-01   1.746658e-01  
 4.688737e-09   2.953904e-02   6.298947e-01   6.298948e-01   1.702919e-01  
 5.382898e-09   3.391226e-02   6.298799e-01   6.298800e-01   1.660241e-01  
 6.124838e-09   3.858648e-02   6.298618e-01   6.298619e-01   1.618020e-01  
 6.926513e-09   4.363703e-02   6.298392e-01   6.298393e-01   1.575662e-01  
 7.801200e-09   4.914756e-02   6.298104e-01   6.298105e-01   1.532596e-01  
 8.763731e-09   5.521150e-02   6.297727e-01   6.297729e-01   1.488259e-01  
 9.763731e-09   6.151150e-02   6.297258e-01   6.297260e-01   1.444903e-01  
 1.076373e-08   6.781150e-02   6.296694e-01   6.296697e-01   1.403756e-01  
 1.176373e-08   7.411150e-02   6.296016e-01   6.296019e-01   1.364399e-01  
 1.276373e-08   8.041150e-02   6.295202e-01   6.295205e-01   1.326514e-01  
 1.376373e-08   8.671150e-02   6.294225e-01   6.294229e-01   1.289854e-01  
 1.476373e-08   9.301150e-02   6.293054e-01   6.293059e-01   1.254229e-01  
 1.576373e-08   9.931150e-02   6.291653e-01   6.291658e-01   1.219485e-01  
 1.676373e-08   1.056115e-01   6.289978e-01   6.289985e-01   1.185500e-01  
 1.776373e-08   1.119115e-01   6.287981e-01   6.287989e-01   1.152173e-01  
 1.876373e-08   1.182115e-01   6.285606e-01   6.285615e-01   1.119419e-01  
 1.976373e-08   1.245115e-01   6.282787e-01   6.282799e-01   1.087166e-01  
 2.076373e-08   1.308115e-01   6.279453e-01   6.279467e-01   1.055351e-01  
 2.176373e-08   1.371115e-01   6.275523e-01   6.275541e-01   1.023918e-01  
 2.276373e-08   1.434115e-01   6.270910e-01   6.270931e-01   9.928150e-02  
 2.376373e-08   1.497115e-01   6.265517e-01   6.265542e-01   9.619931e-02  
 2.476373e-08   1.560115e-01   6.259243e-01   6.259274e-01   9.314066e-02  
 2.576373e-08   1.623115e-01   6.251982e-01   6.252019e-01   9.010108e-02  
 2.676373e-08   1.686115e-01   6.243624e-01   6.243667e-01   8.707622e-02  
 2.776373e-08   1.749115e-01   6.234057e-01   6.234108e-01   8.406182e-02  
 2.876373e-08   1.812115e-01   6.223167e-01   6.223229e-01   8.105375e-02  
 2.976373e-08   1.875115e-01   6.210842e-01   6.210915e-01   7.804804e-02  
 3.076373e-08   1.938115e-01   6.196966e-01   6.197052e-01   7.504097e-02  
 3.176373e-08   2.001115e-01   6.181421e-01   6.181522e-01   7.202918e-02  
 3.276373e-08   2.064115e-01   6.164082e-01   6.164200e-01   6.900980e-02  
 3.376373e-08   2.127115e-01   6.144810e-01   6.144947e-01   6.598056e-02  
 3.476373e-08   2.190115e-01   6.123441e-01   6.123601e-01   6.293999e-02  
 3.576373e-08   2.253115e-01   6.099773e-01   6.099960e-01   5.988759e-02  
 3.676373e-08   2.316115e-01   6.073542e-01   6.073759e-01   5.682413e-02  
 3.776373e-08   2.379115e-01   6.044379e-01   6.044634e-01   5.375199e-02  
 3.876373e-08   2.442115e-01   6.011741e-01   6.012044e-01   5.067577e-02  
 3.976373e-08   2.505115e-01   5.974766e-01   5.975135e-01   4.760328e-02  
 4.076373e-08   2.568115e-01   5.931968e-01   5.932436e-01   4.454702e-02  
 4.176373e-08   2.631115e-01   5.880471e-01   5.881105e-01   4.152638e-02  
 4.269593e-08   2.689843e-01   5.818911e-01   5.819859e-01   3.876758e-02  
 4.314358e-08   2.718045e-01   5.781192e-01   5.782430e-01   3.747141e-02  
 4.352775e-08   2.742248e-01   5.741570e-01   5.743231e-01   3.637788e-02  
 4.387012e-08   2.763817e-01   5.697596e-01   5.699908e-01   3.542023e-02  
 4.412596e-08   2.779935e-01   5.656776e-01   5.659905e-01   3.471610e-02  
 4.431339e-08   2.791743e-01   5.620866e-01   5.624907e-01   3.420696e-02  
 4.447037e-08   2.801633e-01   5.585814e-01   5.590935e-01   3.378514e-02  
 4.461939e-08   2.811021e-01   5.547526e-01   5.554050e-01   3.338871e-02  
 4.476501e-08   2.820196e-01   5.504753e-01   5.513123e-01   3.300519e-02  
 4.491729e-08   2.829789e-01   5.453912e-01   5.464870e-01   3.260839e-02  
 4.511250e-08   2.842088e-01   5.379482e-01   5.395024e-01   3.210616e-02  
 4.531988e-08   2.855152e-01   5.289936e-01   5.312364e-01   3.158084e-02  
 4.547309e-08   2.864805e-01   5.217921e-01   5.247134e-01   3.119822e-02  
 4.559242e-08   2.872323e-01   5.159021e-01   5.194741e-01   3.090352e-02  
 4.571146e-08   2.879821e-01   5.098238e-01   5.141698e-01   3.061246e-02  
 4.584646e-08   2.888327e-01   5.027252e-01   5.081222e-01   3.028585e-02  
 4.598359e-08   2.896966e-01   4.953318e-01   5.020097e-01   2.995797e-02  
 4.612068e-08   2.905602e-01   4.877881e-01   4.959865e-01   2.963407e-02  
 4.626970e-08   2.914991e-01   4.794447e-01   4.895937e-01   2.928638e-02  
 4.643997e-08   2.925718e-01   4.697615e-01   4.825445e-01   2.889477e-02  
 4.663416e-08   2.937952e-01   4.585554e-01   4.748922e-01   2.845540e-02  
 4.686356e-08   2.952404e-01   4.451363e-01   4.664291e-01   2.794630e-02  
 4.715121e-08   2.970526e-01   4.280869e-01   4.567041e-01   2.732286e-02  
 4.745888e-08   2.989909e-01   4.096342e-01   4.473214e-01   2.667401e-02  
 4.778165e-08   3.010244e-01   3.900906e-01   4.384687e-01   2.601269e-02  
 4.813033e-08   3.032210e-01   3.688206e-01   4.298600e-01   2.531972e-02  
 4.851004e-08   3.056133e-01   3.455302e-01   4.214027e-01   2.458924e-02  
 4.892702e-08   3.082402e-01   3.198728e-01   4.129949e-01   2.381455e-02  
 4.939027e-08   3.111587e-01   2.913590e-01   4.045042e-01   2.298558e-02  
 4.990910e-08   3.144273e-01   2.595341e-01   3.958232e-01   2.209393e-02  
 5.049342e-08   3.181085e-01   2.240143e-01   3.868602e-01   2.113265e-02  
 5.115425e-08   3.222718e-01   1.845484e-01   3.775275e-01   2.009558e-02  
 5.190354e-08   3.269923e-01   1.412842e-01   3.677451e-01   1.897805e-02  
 5.259542e-08   3.313511e-01   1.039155e-01   3.593074e-01   1.799613e-02  
 5.286937e-08   3.330770e-01   9.048166e-02   3.560992e-01   1.761968e-02  
 5.310182e-08   3.345414e-01   8.018068e-02   3.534298e-01   1.730547e-02  
 5.332042e-08   3.359186e-01   7.177208e-02   3.509610e-01   1.701423e-02  
 5.350718e-08   3.370952e-01   6.574156e-02   3.488820e-01   1.676860e-02  
 5.371101e-08   3.383794e-01   6.036198e-02   3.466434e-01   1.650379e-02  
 5.392088e-08   3.397015e-01   5.594869e-02   3.443701e-01   1.623465e-02  
 5.409598e-08   3.408046e-01   5.295546e-02   3.424968e-01   1.601276e-02  
 5.425520e-08   3.418077e-01   5.065162e-02   3.408113e-01   1.581305e-02  
 5.443209e-08   3.429222e-01   4.845186e-02   3.389580e-01   1.559344e-02  
 5.463961e-08   3.442295e-01   4.624111e-02   3.368086e-01   1.533881e-02  
 5.486890e-08   3.456740e-01   4.414720e-02   3.344637e-01   1.506113e-02  
 5.512536e-08   3.472898e-01   4.212642e-02   3.318766e-01   1.475504e-02  
 5.543199e-08   3.492215e-01   4.003644e-02   3.288306e-01   1.439514e-02  
 5.580872e-08   3.515949e-01   3.781918e-02   3.251548e-01   1.396177e-02  
 5.626937e-08   3.544970e-01   3.547934e-02   3.207537e-01   1.344467e-02  
 5.684046e-08   3.580949e-01   3.297295e-02   3.154304e-01   1.282247e-02  
 5.756837e-08   3.626807e-01   3.021298e-02   3.088413e-01   1.205850e-02  
 5.851194e-08   3.686252e-01   2.712929e-02   3.005965e-01   1.111444e-02  
 5.951194e-08   3.749252e-01   2.428722e-02   2.921878e-01   1.016821e-02  
 6.051194e-08   3.812252e-01   2.176760e-02   2.840851e-01   9.275291e-03  
 6.151194e-08   3.875252e-01   1.950220e-02   2.762619e-01   8.433648e-03  
 6.251194e-08   3.938252e-01   1.744842e-02   2.686969e-01   7.641681e-03  
 6.351194e-08   4.001252e-01   1.557775e-02   2.613727e-01   6.898148e-03  
 6.451194e-08   4.064252e-01   1.387006e-02   2.542749e-01   6.202080e-03  
 6.551194e-08   4.127252e-01   1.231048e-02   2.473915e-01   5.552695e-03  
 6.651194e-08   4.190252e-01   1.088761e-02   2.407120e-01   4.949313e-03  
 6.751194e-08   4.253252e-01   9.592280e-03   2.342271e-01   4.391266e-03  
 6.851194e-08   4.316252e-01   8.416762e-03   2.279284e-01   3.877815e-03  
 6.951194e-08   4.379252e-01   7.354202e-03   2.218083e-01   3.408067e-03  
 7.051194e-08   4.442252e-01   6.398201e-03   2.158594e-01   2.980909e-03  
 7.151194e-08   4.505252e-01   5.542520e-03   2.100748e-01   2.594962e-03  
 7.251194e-08   4.568252e-01   4.780893e-03   2.044481e-01   2.248555e-03  
 7.351194e-08   4.631252e-01   4.106922e-03   1.989734e-01   1.939721e-03  
 7.451194e-08   4.694252e-01   3.514051e-03   1.936457e-01   1.666225e-03  
 7.551194e-08   4.757252e-01   2.995595e-03   1.884609e-01   1.425611e-03  
 7.651194e-08   4.820252e-01   2.544821e-03   1.834167e-01   1.215259e-03  
 7.751194e-08   4.883252e-01   2.155050e-03   1.785124e-01   1.032465e-03  
 7.851194e-08   4.946252e-01   1.819770e-03   1.737502e-01   8.745050e-04  
 7.951194e-08   5.009252e-01   1.532743e-03   1.691354e-01   7.387063e-04  
 8.051194e-08   5.072252e-01   1.288097e-03   1.646776e-01   6.225050e-04  
 8.151194e-08   5.135252e-01   1.080392e-03   1.603916e-01   5.234897e-04  
 8.251194e-08   5.198252e-01   9.046641e-04   1.562981e-01   4.394321e-04  
 8.351194e-08   5.261252e-01   7.564454e-04   1.524245e-01   3.683059e-04  
 8.451194e-08   5.324252e-01   6.317619e-04   1.488026e-01   3.082931e-04  
 8.551194e-08   5.387252e-01   5.271171e-04   1.454660e-01   2.577816e-04  
 8.651194e-08   5.450252e-01   4.394621e-04   1.424429e-01   2.153569e-04  
 8.751194e-08   5.513252e-01   3.661603e-04   1.397493e-01   1.797884e-04  
 8.851194e-08   5.576252e-01   3.049470e-04   1.373839e-01   1.500135e-04  
 8.951194e-08   5.639252e-01   2.538881e-04   1.353285e-01   1.251206e-04  
 9.051194e-08   5.702252e-01   2.113403e-04   1.335524e-01   1.043316e-04  
 9.151194e-08   5.765252e-01   1.759131e-04   1.320192e-01   8.698573e-05  
 9.251194e-08   5.828252e-01   1.464340e-04   1.306924e-01   7.252340e-05  
 9.351194e-08   5.891252e-01   1.219172e-04   1.295387e-01   6.047282e-05  
 9.451194e-08   5.954252e-01   1.015361e-04   1.285291e-01   5.043695e-05  
 9.551194e-08   6.017252e-01   8.459883e-05   1.276397e-01   4.208248e-05  
 9.651194e-08   6.080252e-01   7.052706e-05   1.268508e-01   3.513011e-05  
 9.751194e-08   6.143252e-01   5.883845e-05   1.261463e-01   2.934616e-05  
 9.851194e-08   6.206252e-01   4.913089e-05   1.255134e-01   2.453536e-05  
 9.925597e-08   6.253126e-01   4.299260e-05   1.250826e-01   2.148959e-05  
 1.000000e-07   6.300000e-01   3.764717e-05   1.246818e-01   1.883454e-05  
