
time (s)       getData("/nvtc getData("/SNMh getData("/SNMr getData("/SNMw

 0.000000e+00   0.000000e+00   6.399544e-01   6.399544e-01   2.157197e-01  
 1.805131e-11   1.155284e-04   6.399563e-01   6.399563e-01   2.155324e-01  
 3.157368e-11   2.020715e-04   6.399562e-01   6.399562e-01   2.153815e-01  
 5.094979e-11   3.260786e-04   6.399560e-01   6.399560e-01   2.151642e-01  
 8.970201e-11   5.740929e-04   6.399557e-01   6.399557e-01   2.147306e-01  
 1.672064e-10   1.070121e-03   6.399550e-01   6.399550e-01   2.138681e-01  
 3.222153e-10   2.062178e-03   6.399536e-01   6.399536e-01   2.121615e-01  
 6.322331e-10   4.046292e-03   6.399507e-01   6.399507e-01   2.088246e-01  
 1.105112e-09   7.072722e-03   6.399458e-01   6.399459e-01   2.039392e-01  
 1.646733e-09   1.053909e-02   6.399398e-01   6.399398e-01   1.986583e-01  
 2.222806e-09   1.422596e-02   6.399326e-01   6.399327e-01   1.934145e-01  
 2.825661e-09   1.808423e-02   6.399242e-01   6.399243e-01   1.883285e-01  
 3.448111e-09   2.206791e-02   6.399145e-01   6.399146e-01   1.834815e-01  
 4.092253e-09   2.619042e-02   6.399032e-01   6.399032e-01   1.788576e-01  
 4.766396e-09   3.050493e-02   6.398897e-01   6.398898e-01   1.743940e-01  
 5.480126e-09   3.507280e-02   6.398735e-01   6.398736e-01   1.700274e-01  
 6.244322e-09   3.996366e-02   6.398535e-01   6.398536e-01   1.656959e-01  
 7.071469e-09   4.525740e-02   6.398284e-01   6.398285e-01   1.613382e-01  
 7.975487e-09   5.104312e-02   6.397960e-01   6.397961e-01   1.568946e-01  
 8.971977e-09   5.742065e-02   6.397534e-01   6.397535e-01   1.523059e-01  
 9.971977e-09   6.382065e-02   6.397018e-01   6.397020e-01   1.479614e-01  
 1.097197e-08   7.022065e-02   6.396396e-01   6.396398e-01   1.438262e-01  
 1.197197e-08   7.662065e-02   6.395647e-01   6.395650e-01   1.398612e-01  
 1.297197e-08   8.302065e-02   6.394745e-01   6.394749e-01   1.360366e-01  
 1.397197e-08   8.942065e-02   6.393662e-01   6.393666e-01   1.323292e-01  
 1.497197e-08   9.582065e-02   6.392361e-01   6.392366e-01   1.287209e-01  
 1.597197e-08   1.022206e-01   6.390803e-01   6.390809e-01   1.251971e-01  
 1.697197e-08   1.086206e-01   6.388938e-01   6.388946e-01   1.217460e-01  
 1.797197e-08   1.150206e-01   6.386714e-01   6.386722e-01   1.183579e-01  
 1.897197e-08   1.214206e-01   6.384065e-01   6.384076e-01   1.150243e-01  
 1.997197e-08   1.278206e-01   6.380923e-01   6.380936e-01   1.117383e-01  
 2.097197e-08   1.342206e-01   6.377208e-01   6.377224e-01   1.084935e-01  
 2.197197e-08   1.406206e-01   6.372832e-01   6.372852e-01   1.052841e-01  
 2.297197e-08   1.470206e-01   6.367702e-01   6.367725e-01   1.021050e-01  
 2.397197e-08   1.534206e-01   6.361716e-01   6.361743e-01   9.895102e-02  
 2.497197e-08   1.598206e-01   6.354768e-01   6.354801e-01   9.581740e-02  
 2.597197e-08   1.662206e-01   6.346749e-01   6.346789e-01   9.269946e-02  
 2.697197e-08   1.726206e-01   6.337548e-01   6.337596e-01   8.959264e-02  
 2.797197e-08   1.790206e-01   6.327055e-01   6.327112e-01   8.649248e-02  
 2.897197e-08   1.854206e-01   6.315159e-01   6.315227e-01   8.339470e-02  
 2.997197e-08   1.918206e-01   6.301751e-01   6.301831e-01   8.029523e-02  
 3.097197e-08   1.982206e-01   6.286723e-01   6.286817e-01   7.719034e-02  
 3.197197e-08   2.046206e-01   6.269962e-01   6.270072e-01   7.407677e-02  
 3.297197e-08   2.110206e-01   6.251346e-01   6.251474e-01   7.095182e-02  
 3.397197e-08   2.174206e-01   6.230740e-01   6.230889e-01   6.781354e-02  
 3.497197e-08   2.238206e-01   6.207979e-01   6.208152e-01   6.466086e-02  
 3.597197e-08   2.302206e-01   6.182856e-01   6.183056e-01   6.149384e-02  
 3.697197e-08   2.366206e-01   6.155089e-01   6.155322e-01   5.831385e-02  
 3.797197e-08   2.430206e-01   6.124282e-01   6.124555e-01   5.512409e-02  
 3.897197e-08   2.494206e-01   6.089834e-01   6.090161e-01   5.193017e-02  
 3.997197e-08   2.558206e-01   6.050778e-01   6.051179e-01   4.874132e-02  
 4.097197e-08   2.622206e-01   6.005402e-01   6.005915e-01   4.557205e-02  
 4.197197e-08   2.686206e-01   5.950294e-01   5.951005e-01   4.244474e-02  
 4.285613e-08   2.742792e-01   5.887107e-01   5.888186e-01   3.974060e-02  
 4.326327e-08   2.768849e-01   5.849911e-01   5.851316e-01   3.852293e-02  
 4.361111e-08   2.791111e-01   5.811260e-01   5.813128e-01   3.749981e-02  
 4.392817e-08   2.811403e-01   5.767772e-01   5.770350e-01   3.658284e-02  
 4.416919e-08   2.826828e-01   5.727046e-01   5.730511e-01   3.589675e-02  
 4.434735e-08   2.838231e-01   5.691148e-01   5.695598e-01   3.539608e-02  
 4.449918e-08   2.847947e-01   5.655694e-01   5.661315e-01   3.497401e-02  
 4.464684e-08   2.857398e-01   5.616151e-01   5.623320e-01   3.456768e-02  
 4.479427e-08   2.866833e-01   5.571087e-01   5.580339e-01   3.416626e-02  
 4.495298e-08   2.876991e-01   5.515915e-01   5.528192e-01   3.373893e-02  
 4.515010e-08   2.889606e-01   5.437843e-01   5.455333e-01   3.321541e-02  
 4.534704e-08   2.902211e-01   5.350270e-01   5.375049e-01   3.270049e-02  
 4.549149e-08   2.911455e-01   5.280939e-01   5.312735e-01   3.232809e-02  
 4.560848e-08   2.918943e-01   5.222193e-01   5.260925e-01   3.202980e-02  
 4.572966e-08   2.926698e-01   5.159297e-01   5.206589e-01   3.172396e-02  
 4.586534e-08   2.935381e-01   5.086825e-01   5.145594e-01   3.138537e-02  
 4.600161e-08   2.944103e-01   5.012222e-01   5.084787e-01   3.104938e-02  
 4.613960e-08   2.952934e-01   4.935142e-01   5.024243e-01   3.071329e-02  
 4.629166e-08   2.962666e-01   4.848724e-01   4.959287e-01   3.034782e-02  
 4.646594e-08   2.973820e-01   4.748093e-01   4.887676e-01   2.993521e-02  
 4.666605e-08   2.986627e-01   4.630811e-01   4.809710e-01   2.946959e-02  
 4.690782e-08   3.002101e-01   4.487105e-01   4.721962e-01   2.891858e-02  
 4.719988e-08   3.020792e-01   4.311153e-01   4.625215e-01   2.826948e-02  
 4.751120e-08   3.040717e-01   4.121361e-01   4.532275e-01   2.759693e-02  
 4.784091e-08   3.061818e-01   3.918427e-01   4.443717e-01   2.690568e-02  
 4.819872e-08   3.084718e-01   3.696564e-01   4.357131e-01   2.617897e-02  
 4.859002e-08   3.109761e-01   3.452644e-01   4.271589e-01   2.541074e-02  
 4.902180e-08   3.137395e-01   3.182748e-01   4.185989e-01   2.459330e-02  
 4.950331e-08   3.168212e-01   2.881902e-01   4.099051e-01   2.371659e-02  
 5.004421e-08   3.202829e-01   2.545615e-01   4.009726e-01   2.277232e-02  
 5.065482e-08   3.241908e-01   2.170320e-01   3.917087e-01   2.175353e-02  
 5.134658e-08   3.286181e-01   1.754469e-01   3.820263e-01   2.065422e-02  
 5.209667e-08   3.334187e-01   1.322092e-01   3.722860e-01   1.952169e-02  
 5.253933e-08   3.362517e-01   1.082762e-01   3.668394e-01   1.887993e-02  
 5.293216e-08   3.387658e-01   8.896242e-02   3.621662e-01   1.832582e-02  
 5.312248e-08   3.399838e-01   8.069910e-02   3.599515e-01   1.806236e-02  
 5.328090e-08   3.409977e-01   7.456764e-02   3.581311e-01   1.784546e-02  
 5.348519e-08   3.423052e-01   6.779870e-02   3.558134e-01   1.756894e-02  
 5.369354e-08   3.436386e-01   6.220666e-02   3.534824e-01   1.729053e-02  
 5.389704e-08   3.449411e-01   5.784702e-02   3.512363e-01   1.702201e-02  
 5.407208e-08   3.460613e-01   5.478704e-02   3.493276e-01   1.679371e-02  
 5.423289e-08   3.470905e-01   5.240984e-02   3.475922e-01   1.658610e-02  
 5.440893e-08   3.482171e-01   5.017489e-02   3.457117e-01   1.636110e-02  
 5.461284e-08   3.495222e-01   4.795442e-02   3.435578e-01   1.610344e-02  
 5.483957e-08   3.509733e-01   4.583490e-02   3.411923e-01   1.582057e-02  
 5.509419e-08   3.526028e-01   4.378026e-02   3.385712e-01   1.550738e-02  
 5.539706e-08   3.545412e-01   4.166509e-02   3.354999e-01   1.514084e-02  
 5.576748e-08   3.569119e-01   3.942873e-02   3.318087e-01   1.470119e-02  
 5.622060e-08   3.598118e-01   3.706466e-02   3.273850e-01   1.417592e-02  
 5.678237e-08   3.634072e-01   3.452884e-02   3.220309e-01   1.354315e-02  
 5.749682e-08   3.679796e-01   3.173798e-02   3.154136e-01   1.276675e-02  
 5.842116e-08   3.738954e-01   2.861842e-02   3.071419e-01   1.180712e-02  
 5.942116e-08   3.802954e-01   2.567849e-02   2.985254e-01   1.082313e-02  
 6.042116e-08   3.866954e-01   2.306928e-02   2.902210e-01   9.892843e-03  
 6.142116e-08   3.930954e-01   2.071905e-02   2.822018e-01   9.014119e-03  
 6.242116e-08   3.994954e-01   1.858346e-02   2.744461e-01   8.185313e-03  
 6.342116e-08   4.058954e-01   1.663303e-02   2.669365e-01   7.405172e-03  
 6.442116e-08   4.122954e-01   1.484718e-02   2.596586e-01   6.672756e-03  
 6.542116e-08   4.186954e-01   1.321088e-02   2.526005e-01   5.987358e-03  
 6.642116e-08   4.250954e-01   1.171276e-02   2.457521e-01   5.348418e-03  
 6.742116e-08   4.314954e-01   1.034389e-02   2.391044e-01   4.755434e-03  
 6.842116e-08   4.378954e-01   9.096879e-03   2.326495e-01   4.207868e-03  
 6.942116e-08   4.442954e-01   7.965280e-03   2.263802e-01   3.705062e-03  
 7.042116e-08   4.506954e-01   6.943171e-03   2.202895e-01   3.246154e-03  
 7.142116e-08   4.570954e-01   6.024794e-03   2.143710e-01   2.830017e-03  
 7.242116e-08   4.634954e-01   5.204332e-03   2.086185e-01   2.455210e-03  
 7.342116e-08   4.698954e-01   4.475769e-03   2.030262e-01   2.119968e-03  
 7.442116e-08   4.762954e-01   3.832833e-03   1.975894e-01   1.822207e-03  
 7.542116e-08   4.826954e-01   3.269007e-03   1.923039e-01   1.559561e-03  
 7.642116e-08   4.890954e-01   2.777599e-03   1.871674e-01   1.329445e-03  
 7.742116e-08   4.954954e-01   2.351852e-03   1.821790e-01   1.129123e-03  
 7.842116e-08   5.018954e-01   1.985068e-03   1.773410e-01   9.557893e-04  
 7.942116e-08   5.082954e-01   1.670737e-03   1.726585e-01   8.066461e-04  
 8.042116e-08   5.146954e-01   1.402653e-03   1.681415e-01   6.789726e-04  
 8.142116e-08   5.210954e-01   1.175004e-03   1.638048e-01   5.701812e-04  
 8.242116e-08   5.274954e-01   9.824418e-04   1.596700e-01   4.778592e-04  
 8.342116e-08   5.338954e-01   8.201132e-04   1.557647e-01   3.997968e-04  
 8.442116e-08   5.402954e-01   6.836795e-04   1.521214e-01   3.339995e-04  
 8.542116e-08   5.466954e-01   5.693047e-04   1.487734e-01   2.786918e-04  
 8.642116e-08   5.530954e-01   4.736334e-04   1.457481e-01   2.323105e-04  
 8.742116e-08   5.594954e-01   3.937566e-04   1.430596e-01   1.934926e-04  
 8.842116e-08   5.658954e-01   3.271719e-04   1.407042e-01   1.610599e-04  
 8.942116e-08   5.722954e-01   2.717404e-04   1.386612e-01   1.340009e-04  
 9.042116e-08   5.786954e-01   2.256446e-04   1.368980e-01   1.114523e-04  
 9.142116e-08   5.850954e-01   1.873467e-04   1.353773e-01   9.268122e-05  
 9.242116e-08   5.914954e-01   1.555511e-04   1.340620e-01   7.706776e-05  
 9.342116e-08   5.978954e-01   1.291699e-04   1.329184e-01   6.408977e-05  
 9.442116e-08   6.042954e-01   1.072917e-04   1.319177e-01   5.330855e-05  
 9.542116e-08   6.106954e-01   8.915490e-05   1.310361e-01   4.435646e-05  
 9.642116e-08   6.170954e-01   7.412432e-05   1.302541e-01   3.692602e-05  
 9.742116e-08   6.234954e-01   6.167099e-05   1.295558e-01   3.076054e-05  
 9.842116e-08   6.298954e-01   5.135491e-05   1.289283e-01   2.564596e-05  
 9.921058e-08   6.349477e-01   4.447842e-05   1.284761e-01   2.223254e-05  
 1.000000e-07   6.400000e-01   3.855274e-05   1.280573e-01   1.928809e-05  
