
time (s)       getData("/nvtc getData("/SNMh getData("/SNMr getData("/SNMw

 0.000000e+00   0.000000e+00   6.099377e-01   6.099377e-01   2.081695e-01  
 1.846378e-11   1.126291e-04   6.099395e-01   6.099395e-01   2.079784e-01  
 3.233687e-11   1.972549e-04   6.099394e-01   6.099394e-01   2.078236e-01  
 5.209472e-11   3.177777e-04   6.099391e-01   6.099392e-01   2.076022e-01  
 9.161041e-11   5.588235e-04   6.099387e-01   6.099388e-01   2.071602e-01  
 1.706418e-10   1.040915e-03   6.099378e-01   6.099379e-01   2.062809e-01  
 3.287046e-10   2.005098e-03   6.099360e-01   6.099361e-01   2.045404e-01  
 6.448302e-10   3.933464e-03   6.099323e-01   6.099323e-01   2.011354e-01  
 1.122721e-09   6.848599e-03   6.099262e-01   6.099262e-01   1.961898e-01  
 1.666914e-09   1.016817e-02   6.099186e-01   6.099186e-01   1.908688e-01  
 2.242680e-09   1.368034e-02   6.099097e-01   6.099098e-01   1.856083e-01  
 2.841514e-09   1.733323e-02   6.098994e-01   6.098995e-01   1.805346e-01  
 3.455997e-09   2.108158e-02   6.098878e-01   6.098879e-01   1.757285e-01  
 4.088170e-09   2.493784e-02   6.098743e-01   6.098745e-01   1.711717e-01  
 4.746081e-09   2.895109e-02   6.098587e-01   6.098588e-01   1.668003e-01  
 5.438918e-09   3.317740e-02   6.098402e-01   6.098403e-01   1.625512e-01  
 6.177005e-09   3.767973e-02   6.098178e-01   6.098180e-01   1.583634e-01  
 6.972051e-09   4.252951e-02   6.097903e-01   6.097904e-01   1.541780e-01  
 7.836967e-09   4.780549e-02   6.097556e-01   6.097558e-01   1.499387e-01  
 8.786086e-09   5.359512e-02   6.097110e-01   6.097113e-01   1.455910e-01  
 9.786086e-09   5.969512e-02   6.096553e-01   6.096557e-01   1.412865e-01  
 1.078608e-08   6.579512e-02   6.095891e-01   6.095895e-01   1.372094e-01  
 1.178608e-08   7.189512e-02   6.095104e-01   6.095109e-01   1.333167e-01  
 1.278608e-08   7.799512e-02   6.094170e-01   6.094175e-01   1.295755e-01  
 1.378608e-08   8.409512e-02   6.093061e-01   6.093068e-01   1.259605e-01  
 1.478608e-08   9.019512e-02   6.091747e-01   6.091755e-01   1.224519e-01  
 1.578608e-08   9.629512e-02   6.090191e-01   6.090201e-01   1.190339e-01  
 1.678608e-08   1.023951e-01   6.088353e-01   6.088365e-01   1.156938e-01  
 1.778608e-08   1.084951e-01   6.086185e-01   6.086199e-01   1.124212e-01  
 1.878608e-08   1.145951e-01   6.083634e-01   6.083650e-01   1.092075e-01  
 1.978608e-08   1.206951e-01   6.080639e-01   6.080658e-01   1.060451e-01  
 2.078608e-08   1.267951e-01   6.077132e-01   6.077156e-01   1.029276e-01  
 2.178608e-08   1.328951e-01   6.073040e-01   6.073068e-01   9.984929e-02  
 2.278608e-08   1.389951e-01   6.068281e-01   6.068314e-01   9.680495e-02  
 2.378608e-08   1.450951e-01   6.062768e-01   6.062807e-01   9.378978e-02  
 2.478608e-08   1.511951e-01   6.056407e-01   6.056454e-01   9.079927e-02  
 2.578608e-08   1.572951e-01   6.049102e-01   6.049158e-01   8.782911e-02  
 2.678608e-08   1.633951e-01   6.040749e-01   6.040816e-01   8.487514e-02  
 2.778608e-08   1.694951e-01   6.031245e-01   6.031324e-01   8.193339e-02  
 2.878608e-08   1.755951e-01   6.020482e-01   6.020575e-01   7.900002e-02  
 2.978608e-08   1.816951e-01   6.008352e-01   6.008461e-01   7.607141e-02  
 3.078608e-08   1.877951e-01   5.994740e-01   5.994868e-01   7.314420e-02  
 3.178608e-08   1.938951e-01   5.979528e-01   5.979679e-01   7.021537e-02  
 3.278608e-08   1.999951e-01   5.962590e-01   5.962766e-01   6.728235e-02  
 3.378608e-08   2.060951e-01   5.943783e-01   5.943987e-01   6.434316e-02  
 3.478608e-08   2.121951e-01   5.922939e-01   5.923176e-01   6.139654e-02  
 3.578608e-08   2.182951e-01   5.899855e-01   5.900129e-01   5.844216e-02  
 3.678608e-08   2.243951e-01   5.874263e-01   5.874582e-01   5.548089e-02  
 3.778608e-08   2.304951e-01   5.845799e-01   5.846172e-01   5.251521e-02  
 3.878608e-08   2.365951e-01   5.813933e-01   5.814375e-01   4.954978e-02  
 3.978608e-08   2.426951e-01   5.777835e-01   5.778371e-01   4.659242e-02  
 4.078608e-08   2.487951e-01   5.736097e-01   5.736771e-01   4.365550e-02  
 4.178608e-08   2.548951e-01   5.686054e-01   5.686955e-01   4.075772e-02  
 4.274212e-08   2.607269e-01   5.625037e-01   5.626369e-01   3.804843e-02  
 4.321801e-08   2.636298e-01   5.586351e-01   5.588092e-01   3.673135e-02  
 4.362747e-08   2.661275e-01   5.545496e-01   5.547833e-01   3.561911e-02  
 4.398933e-08   2.683349e-01   5.500402e-01   5.503653e-01   3.465460e-02  
 4.425998e-08   2.699858e-01   5.458416e-01   5.462814e-01   3.394559e-02  
 4.445945e-08   2.712026e-01   5.421172e-01   5.426858e-01   3.343028e-02  
 4.462705e-08   2.722250e-01   5.384615e-01   5.391831e-01   3.300230e-02  
 4.478654e-08   2.731979e-01   5.344497e-01   5.353705e-01   3.259936e-02  
 4.494400e-08   2.741584e-01   5.299120e-01   5.310978e-01   3.220581e-02  
 4.511291e-08   2.751887e-01   5.243613e-01   5.259288e-01   3.178850e-02  
 4.531801e-08   2.764398e-01   5.166727e-01   5.188759e-01   3.128861e-02  
 4.552692e-08   2.777142e-01   5.078717e-01   5.109664e-01   3.078728e-02  
 4.568057e-08   2.786514e-01   5.008768e-01   5.048197e-01   3.042374e-02  
 4.580429e-08   2.794062e-01   4.949814e-01   4.997478e-01   3.013420e-02  
 4.593203e-08   2.801853e-01   4.886911e-01   4.944571e-01   2.983827e-02  
 4.607632e-08   2.810655e-01   4.813794e-01   4.884787e-01   2.950768e-02  
 4.622232e-08   2.819561e-01   4.737978e-01   4.824898e-01   2.917715e-02  
 4.637096e-08   2.828628e-01   4.659249e-01   4.765114e-01   2.884479e-02  
 4.653651e-08   2.838727e-01   4.570055e-01   4.700469e-01   2.847950e-02  
 4.672961e-08   2.850506e-01   4.464370e-01   4.628187e-01   2.805989e-02  
 4.695610e-08   2.864322e-01   4.338589e-01   4.548176e-01   2.757654e-02  
 4.723843e-08   2.881544e-01   4.179596e-01   4.455875e-01   2.698712e-02  
 4.755585e-08   2.900907e-01   3.998571e-01   4.361553e-01   2.634148e-02  
 4.789045e-08   2.921317e-01   3.805767e-01   4.271834e-01   2.567983e-02  
 4.824832e-08   2.943147e-01   3.597890e-01   4.185277e-01   2.499291e-02  
 4.863651e-08   2.966827e-01   3.371078e-01   4.100460e-01   2.427099e-02  
 4.906069e-08   2.992702e-01   3.122368e-01   4.016503e-01   2.350838e-02  
 4.952895e-08   3.021266e-01   2.847626e-01   3.932238e-01   2.269651e-02  
 5.005051e-08   3.053081e-01   2.542524e-01   3.846571e-01   2.182683e-02  
 5.063505e-08   3.088738e-01   2.203401e-01   3.758585e-01   2.089239e-02  
 5.129317e-08   3.128883e-01   1.827810e-01   3.667438e-01   1.988716e-02  
 5.203648e-08   3.174225e-01   1.416689e-01   3.572339e-01   1.880635e-02  
 5.274556e-08   3.217479e-01   1.048459e-01   3.487749e-01   1.782458e-02  
 5.303609e-08   3.235202e-01   9.109814e-02   3.454538e-01   1.743527e-02  
 5.328345e-08   3.250290e-01   8.050933e-02   3.426854e-01   1.710947e-02  
 5.351304e-08   3.264295e-01   7.196885e-02   3.401614e-01   1.681161e-02  
 5.370838e-08   3.276211e-01   6.585595e-02   3.380465e-01   1.656153e-02  
 5.391984e-08   3.289110e-01   6.043042e-02   3.357892e-01   1.629420e-02  
 5.413638e-08   3.302319e-01   5.598563e-02   3.335109e-01   1.602405e-02  
 5.432118e-08   3.313592e-01   5.289707e-02   3.315917e-01   1.579630e-02  
 5.448992e-08   3.323885e-01   5.051385e-02   3.298588e-01   1.559057e-02  
 5.467516e-08   3.335185e-01   4.826782e-02   3.279772e-01   1.536712e-02  
 5.489119e-08   3.348362e-01   4.602352e-02   3.258091e-01   1.510966e-02  
 5.513139e-08   3.363015e-01   4.388448e-02   3.234303e-01   1.482725e-02  
 5.540077e-08   3.379447e-01   4.181637e-02   3.208006e-01   1.451529e-02  
 5.572174e-08   3.399026e-01   3.968651e-02   3.177172e-01   1.414999e-02  
 5.611536e-08   3.423037e-01   3.743240e-02   3.140061e-01   1.371127e-02  
 5.659733e-08   3.452437e-01   3.505221e-02   3.095605e-01   1.318756e-02  
 5.719514e-08   3.488903e-01   3.250440e-02   3.041861e-01   1.255790e-02  
 5.795615e-08   3.535325e-01   2.970663e-02   2.975494e-01   1.178700e-02  
 5.894157e-08   3.595435e-01   2.659049e-02   2.892641e-01   1.083746e-02  
 5.994157e-08   3.656435e-01   2.384054e-02   2.811760e-01   9.927429e-03  
 6.094157e-08   3.717435e-01   2.139892e-02   2.733789e-01   9.068979e-03  
 6.194157e-08   3.778435e-01   1.920285e-02   2.658478e-01   8.260193e-03  
 6.294157e-08   3.839435e-01   1.721230e-02   2.585624e-01   7.499518e-03  
 6.394157e-08   3.900435e-01   1.540000e-02   2.515060e-01   6.785692e-03  
 6.494157e-08   3.961435e-01   1.374637e-02   2.446648e-01   6.117663e-03  
 6.594157e-08   4.022435e-01   1.223673e-02   2.380270e-01   5.494524e-03  
 6.694157e-08   4.083435e-01   1.085957e-02   2.315823e-01   4.915432e-03  
 6.794157e-08   4.144435e-01   9.605555e-03   2.253218e-01   4.379541e-03  
 6.894157e-08   4.205435e-01   8.466686e-03   2.192374e-01   3.885937e-03  
 6.994157e-08   4.266435e-01   7.435878e-03   2.133217e-01   3.433572e-03  
 7.094157e-08   4.327435e-01   6.506555e-03   2.075679e-01   3.021226e-03  
 7.194157e-08   4.388435e-01   5.672411e-03   2.019697e-01   2.647467e-03  
 7.294157e-08   4.449435e-01   4.927236e-03   1.965216e-01   2.310640e-03  
 7.394157e-08   4.510435e-01   4.264834e-03   1.912186e-01   2.008867e-03  
 7.494157e-08   4.571435e-01   3.678980e-03   1.860570e-01   1.740075e-03  
 7.594157e-08   4.632435e-01   3.163436e-03   1.810340e-01   1.502022e-03  
 7.694157e-08   4.693435e-01   2.712003e-03   1.761488e-01   1.292356e-03  
 7.794157e-08   4.754435e-01   2.318585e-03   1.714024e-01   1.108659e-03  
 7.894157e-08   4.815435e-01   1.977266e-03   1.667991e-01   9.485071e-04  
 7.994157e-08   4.876435e-01   1.682388e-03   1.623464e-01   8.095194e-04  
 8.094157e-08   4.937435e-01   1.428615e-03   1.580565e-01   6.894034e-04  
 8.194157e-08   4.998435e-01   1.210981e-03   1.539469e-01   5.859898e-04  
 8.294157e-08   5.059435e-01   1.024926e-03   1.500408e-01   4.972583e-04  
 8.394157e-08   5.120435e-01   8.663137e-04   1.463669e-01   4.213541e-04  
 8.494157e-08   5.181435e-01   7.314275e-04   1.429563e-01   3.565955e-04  
 8.594157e-08   5.242435e-01   6.169646e-04   1.398383e-01   3.014744e-04  
 8.694157e-08   5.303435e-01   5.200129e-04   1.370332e-01   2.546512e-04  
 8.794157e-08   5.364435e-01   4.380241e-04   1.345471e-01   2.149460e-04  
 8.894157e-08   5.425435e-01   3.687832e-04   1.323698e-01   1.813272e-04  
 8.994157e-08   5.486435e-01   3.103753e-04   1.304772e-01   1.528982e-04  
 9.094157e-08   5.547435e-01   2.611532e-04   1.288370e-01   1.288840e-04  
 9.194157e-08   5.608435e-01   2.197057e-04   1.274144e-01   1.086176e-04  
 9.294157e-08   5.669435e-01   1.848282e-04   1.261762e-01   9.152744e-05  
 9.394157e-08   5.730435e-01   1.554955e-04   1.250926e-01   7.712505e-05  
 9.494157e-08   5.791435e-01   1.308373e-04   1.241384e-01   6.499438e-05  
 9.594157e-08   5.852435e-01   1.101161e-04   1.232927e-01   5.478173e-05  
 9.694157e-08   5.913435e-01   9.270855e-05   1.225383e-01   4.618709e-05  
 9.794157e-08   5.974435e-01   7.808800e-05   1.218612e-01   3.895638e-05  
 9.894157e-08   6.035435e-01   6.581051e-05   1.212498e-01   3.287469e-05  
 9.947078e-08   6.067717e-01   6.013109e-05   1.209497e-01   3.005802e-05  
 1.000000e-07   6.100000e-01   5.495363e-05   1.206641e-01   2.748826e-05  
