
time (s)       getData("/nvtc getData("/SNMh getData("/SNMr getData("/SNMw

 0.000000e+00   0.000000e+00   7.899121e-01   7.899122e-01   2.906964e-01  
 1.636157e-11   1.292564e-04   7.899143e-01   7.899143e-01   2.905521e-01  
 2.845343e-11   2.247821e-04   7.899141e-01   7.899142e-01   2.904381e-01  
 4.625350e-11   3.654026e-04   7.899137e-01   7.899138e-01   2.902699e-01  
 8.185363e-11   6.466436e-04   7.899130e-01   7.899131e-01   2.899339e-01  
 1.530538e-10   1.209125e-03   7.899116e-01   7.899117e-01   2.892642e-01  
 2.954544e-10   2.334089e-03   7.899087e-01   7.899088e-01   2.879346e-01  
 5.802554e-10   4.584018e-03   7.899026e-01   7.899026e-01   2.853144e-01  
 1.149857e-09   9.083874e-03   7.898891e-01   7.898892e-01   2.802334e-01  
 1.897752e-09   1.499224e-02   7.898686e-01   7.898687e-01   2.738886e-01  
 2.724946e-09   2.152707e-02   7.898415e-01   7.898417e-01   2.672943e-01  
 3.619279e-09   2.859230e-02   7.898062e-01   7.898064e-01   2.606330e-01  
 4.574005e-09   3.613464e-02   7.897600e-01   7.897602e-01   2.540023e-01  
 5.574005e-09   4.403464e-02   7.897001e-01   7.897003e-01   2.475151e-01  
 6.574005e-09   5.193464e-02   7.896254e-01   7.896258e-01   2.414206e-01  
 7.574005e-09   5.983464e-02   7.895328e-01   7.895332e-01   2.356499e-01  
 8.574005e-09   6.773464e-02   7.894178e-01   7.894183e-01   2.301451e-01  
 9.574005e-09   7.563464e-02   7.892756e-01   7.892762e-01   2.248580e-01  
 1.057400e-08   8.353464e-02   7.890999e-01   7.891007e-01   2.197496e-01  
 1.157400e-08   9.143464e-02   7.888835e-01   7.888845e-01   2.147878e-01  
 1.257400e-08   9.933464e-02   7.886181e-01   7.886194e-01   2.099463e-01  
 1.357400e-08   1.072346e-01   7.882939e-01   7.882954e-01   2.052034e-01  
 1.457400e-08   1.151346e-01   7.878996e-01   7.879015e-01   2.005404e-01  
 1.557400e-08   1.230346e-01   7.874232e-01   7.874255e-01   1.959414e-01  
 1.657400e-08   1.309346e-01   7.868512e-01   7.868541e-01   1.913920e-01  
 1.757400e-08   1.388346e-01   7.861696e-01   7.861731e-01   1.868793e-01  
 1.857400e-08   1.467346e-01   7.853643e-01   7.853686e-01   1.823914e-01  
 1.957400e-08   1.546346e-01   7.844215e-01   7.844268e-01   1.779168e-01  
 2.057400e-08   1.625346e-01   7.833284e-01   7.833349e-01   1.734448e-01  
 2.157400e-08   1.704346e-01   7.820741e-01   7.820819e-01   1.689650e-01  
 2.257400e-08   1.783346e-01   7.806495e-01   7.806588e-01   1.644677e-01  
 2.357400e-08   1.862346e-01   7.790481e-01   7.790591e-01   1.599438e-01  
 2.457400e-08   1.941346e-01   7.772656e-01   7.772785e-01   1.553853e-01  
 2.557400e-08   2.020346e-01   7.752997e-01   7.753148e-01   1.507850e-01  
 2.657400e-08   2.099346e-01   7.731499e-01   7.731673e-01   1.461373e-01  
 2.757400e-08   2.178346e-01   7.708164e-01   7.708363e-01   1.414380e-01  
 2.857400e-08   2.257346e-01   7.682997e-01   7.683223e-01   1.366843e-01  
 2.957400e-08   2.336346e-01   7.655995e-01   7.656251e-01   1.318752e-01  
 3.057400e-08   2.415346e-01   7.627143e-01   7.627433e-01   1.270105e-01  
 3.157400e-08   2.494346e-01   7.596406e-01   7.596735e-01   1.220918e-01  
 3.257400e-08   2.573346e-01   7.563724e-01   7.564098e-01   1.171213e-01  
 3.357400e-08   2.652346e-01   7.529001e-01   7.529429e-01   1.121024e-01  
 3.457400e-08   2.731346e-01   7.492101e-01   7.492592e-01   1.070392e-01  
 3.557400e-08   2.810346e-01   7.452827e-01   7.453396e-01   1.019372e-01  
 3.657400e-08   2.889346e-01   7.410905e-01   7.411571e-01   9.680272e-02  
 3.757400e-08   2.968346e-01   7.365939e-01   7.366729e-01   9.164405e-02  
 3.857400e-08   3.047346e-01   7.317340e-01   7.318295e-01   8.647237e-02  
 3.957400e-08   3.126346e-01   7.264186e-01   7.265368e-01   8.130362e-02  
 4.057400e-08   3.205346e-01   7.204916e-01   7.206433e-01   7.616213e-02  
 4.157400e-08   3.284346e-01   7.136612e-01   7.138679e-01   7.108680e-02  
 4.254528e-08   3.361077e-01   7.055730e-01   7.058823e-01   6.627994e-02  
 4.303800e-08   3.400002e-01   7.005093e-01   7.009172e-01   6.391447e-02  
 4.345896e-08   3.433258e-01   6.953289e-01   6.958778e-01   6.194603e-02  
 4.385095e-08   3.464225e-01   6.894028e-01   6.901803e-01   6.016509e-02  
 4.413944e-08   3.487015e-01   6.840140e-01   6.850800e-01   5.889065e-02  
 4.435036e-08   3.503678e-01   6.792979e-01   6.806910e-01   5.797998e-02  
 4.452989e-08   3.517861e-01   6.746204e-01   6.764137e-01   5.721962e-02  
 4.470396e-08   3.531613e-01   6.693842e-01   6.717206e-01   5.649580e-02  
 4.487756e-08   3.545327e-01   6.633757e-01   6.664633e-01   5.578734e-02  
 4.507049e-08   3.560568e-01   6.557020e-01   6.599515e-01   5.501610e-02  
 4.529340e-08   3.578178e-01   6.455221e-01   6.516681e-01   5.414618e-02  
 4.548897e-08   3.593628e-01   6.355221e-01   6.439322e-01   5.340178e-02  
 4.563580e-08   3.605228e-01   6.274428e-01   6.379773e-01   5.285436e-02  
 4.576403e-08   3.615358e-01   6.200429e-01   6.327564e-01   5.238432e-02  
 4.590423e-08   3.626434e-01   6.116338e-01   6.270918e-01   5.187883e-02  
 4.605982e-08   3.638725e-01   6.019660e-01   6.209232e-01   5.132799e-02  
 4.622032e-08   3.651405e-01   5.916772e-01   6.147444e-01   5.077075e-02  
 4.639613e-08   3.665294e-01   5.800943e-01   6.082325e-01   5.017287e-02  
 4.661138e-08   3.682299e-01   5.655368e-01   6.006518e-01   4.945812e-02  
 4.689185e-08   3.704456e-01   5.460543e-01   5.914167e-01   4.855408e-02  
 4.724778e-08   3.732574e-01   5.206623e-01   5.806572e-01   4.744873e-02  
 4.764289e-08   3.763788e-01   4.918036e-01   5.697827e-01   4.627233e-02  
 4.807839e-08   3.798193e-01   4.594069e-01   5.588488e-01   4.503169e-02  
 4.856799e-08   3.836871e-01   4.225219e-01   5.475907e-01   4.369962e-02  
 4.911975e-08   3.880460e-01   3.807121e-01   5.359183e-01   4.226850e-02  
 4.974383e-08   3.929763e-01   3.335841e-01   5.237139e-01   4.072763e-02  
 5.045296e-08   3.985784e-01   2.809344e-01   5.108386e-01   3.906316e-02  
 5.120294e-08   4.045032e-01   2.272485e-01   4.981186e-01   3.738862e-02  
 5.188289e-08   4.098749e-01   1.814317e-01   4.872266e-01   3.593653e-02  
 5.245625e-08   4.144044e-01   1.461597e-01   4.784382e-01   3.475540e-02  
 5.274159e-08   4.166585e-01   1.304324e-01   4.741839e-01   3.418117e-02  
 5.298424e-08   4.185755e-01   1.184787e-01   4.706237e-01   3.369956e-02  
 5.321609e-08   4.204071e-01   1.086101e-01   4.672687e-01   3.324494e-02  
 5.342949e-08   4.220929e-01   1.010216e-01   4.642197e-01   3.283116e-02  
 5.365523e-08   4.238763e-01   9.449123e-02   4.610328e-01   3.239815e-02  
 5.388750e-08   4.257112e-01   8.912285e-02   4.577937e-01   3.195753e-02  
 5.407738e-08   4.272113e-01   8.552941e-02   4.551746e-01   3.160093e-02  
 5.425151e-08   4.285869e-01   8.271479e-02   4.527948e-01   3.127670e-02  
 5.444798e-08   4.301390e-01   7.996443e-02   4.501343e-01   3.091399e-02  
 5.467910e-08   4.319649e-01   7.717020e-02   4.470368e-01   3.049147e-02  
 5.493243e-08   4.339662e-01   7.451796e-02   4.436803e-01   3.003338e-02  
 5.521586e-08   4.362053e-01   7.192641e-02   4.399710e-01   2.952694e-02  
 5.555645e-08   4.388960e-01   6.919581e-02   4.355751e-01   2.892660e-02  
 5.597544e-08   4.422060e-01   6.624981e-02   4.302552e-01   2.820004e-02  
 5.648717e-08   4.462486e-01   6.308729e-02   4.238817e-01   2.732986e-02  
 5.712213e-08   4.512648e-01   5.962451e-02   4.161510e-01   2.627538e-02  
 5.793287e-08   4.576697e-01   5.571090e-02   4.065446e-01   2.496761e-02  
 5.893287e-08   4.655697e-01   5.141931e-02   3.950699e-01   2.341104e-02  
 5.993287e-08   4.734697e-01   4.754555e-02   3.839731e-01   2.191342e-02  
 6.093287e-08   4.813697e-01   4.398292e-02   3.732232e-01   2.047174e-02  
 6.193287e-08   4.892697e-01   4.066811e-02   3.627956e-01   1.908350e-02  
 6.293287e-08   4.971697e-01   3.756029e-02   3.526704e-01   1.774666e-02  
 6.393287e-08   5.050697e-01   3.463159e-02   3.428320e-01   1.645956e-02  
 6.493287e-08   5.129697e-01   3.186226e-02   3.332678e-01   1.522094e-02  
 6.593287e-08   5.208697e-01   2.923797e-02   3.239687e-01   1.402987e-02  
 6.693287e-08   5.287697e-01   2.674821e-02   3.149277e-01   1.288580e-02  
 6.793287e-08   5.366697e-01   2.438540e-02   3.061407e-01   1.178853e-02  
 6.893287e-08   5.445697e-01   2.214419e-02   2.976055e-01   1.073822e-02  
 6.993287e-08   5.524697e-01   2.002112e-02   2.893219e-01   9.735422e-03  
 7.093287e-08   5.603697e-01   1.801427e-02   2.812917e-01   8.781027e-03  
 7.193287e-08   5.682697e-01   1.612300e-02   2.735185e-01   7.876254e-03  
 7.293287e-08   5.761697e-01   1.434767e-02   2.660076e-01   7.022573e-03  
 7.393287e-08   5.840697e-01   1.268937e-02   2.587660e-01   6.221607e-03  
 7.493287e-08   5.919697e-01   1.114951e-02   2.518023e-01   5.474994e-03  
 7.593287e-08   5.998697e-01   9.729512e-03   2.451277e-01   4.784214e-03  
 7.693287e-08   6.077697e-01   8.430283e-03   2.387556e-01   4.150400e-03  
 7.793287e-08   6.156697e-01   7.251881e-03   2.327035e-01   3.574147e-03  
 7.893287e-08   6.235697e-01   6.193108e-03   2.269934e-01   3.055335e-03  
 7.993287e-08   6.314697e-01   5.251251e-03   2.216530e-01   2.593012e-03  
 8.093287e-08   6.393697e-01   4.421957e-03   2.167148e-01   2.185338e-03  
 8.193287e-08   6.472697e-01   3.699269e-03   2.122131e-01   1.829618e-03  
 8.293287e-08   6.551697e-01   3.075831e-03   2.081768e-01   1.522409e-03  
 8.393287e-08   6.630697e-01   2.543207e-03   2.046205e-01   1.259689e-03  
 8.493287e-08   6.709697e-01   2.092290e-03   2.015364e-01   1.037071e-03  
 8.593287e-08   6.788697e-01   1.713719e-03   1.988939e-01   8.500139e-04  
 8.693287e-08   6.867697e-01   1.398265e-03   1.966452e-01   6.940188e-04  
 8.793287e-08   6.946697e-01   1.137143e-03   1.947352e-01   5.647920e-04  
 8.893287e-08   7.025697e-01   9.222391e-04   1.931091e-01   4.583584e-04  
 8.993287e-08   7.104697e-01   7.462454e-04   1.917177e-01   3.711317e-04  
 9.093287e-08   7.183697e-01   6.027198e-04   1.905192e-01   2.999457e-04  
 9.193287e-08   7.262697e-01   4.860828e-04   1.894792e-01   2.420550e-04  
 9.293287e-08   7.341697e-01   3.915731e-04   1.885702e-01   1.951141e-04  
 9.393287e-08   7.420697e-01   3.151767e-04   1.877697e-01   1.571439e-04  
 9.493287e-08   7.499697e-01   2.535433e-04   1.870600e-01   1.264909e-04  
 9.593287e-08   7.578697e-01   2.038995e-04   1.864268e-01   1.017848e-04  
 9.693287e-08   7.657697e-01   1.639647e-04   1.858586e-01   8.189826e-05  
 9.793287e-08   7.736697e-01   1.318736e-04   1.853460e-01   6.590793e-05  
 9.893287e-08   7.815697e-01   1.061071e-04   1.848814e-01   5.306155e-05  
 9.946643e-08   7.857848e-01   9.451077e-05   1.846508e-01   4.727743e-05  
 1.000000e-07   7.900000e-01   8.420144e-05   1.844313e-01   4.213376e-05  
