
time (s)       getData("/nvtc getData("/SNMh getData("/SNMr getData("/SNMw

 0.000000e+00   0.000000e+00   8.397460e-01   8.397465e-01   3.296995e-01  
 1.590387e-11   1.335925e-04   8.397479e-01   8.397484e-01   3.295861e-01  
 2.760975e-11   2.319219e-04   8.397473e-01   8.397479e-01   3.294971e-01  
 4.497877e-11   3.778216e-04   8.397463e-01   8.397469e-01   3.293648e-01  
 7.971679e-11   6.696210e-04   8.397444e-01   8.397450e-01   3.291003e-01  
 1.491928e-10   1.253219e-03   8.397405e-01   8.397411e-01   3.285723e-01  
 2.881449e-10   2.420417e-03   8.397326e-01   8.397332e-01   3.275200e-01  
 5.660491e-10   4.754812e-03   8.397160e-01   8.397166e-01   3.254308e-01  
 1.121857e-09   9.423603e-03   8.396797e-01   8.396804e-01   3.213171e-01  
 2.121857e-09   1.782360e-02   8.396025e-01   8.396034e-01   3.141427e-01  
 3.121857e-09   2.622360e-02   8.395073e-01   8.395084e-01   3.072636e-01  
 4.121857e-09   3.462360e-02   8.393898e-01   8.393912e-01   3.006676e-01  
 5.121857e-09   4.302360e-02   8.392453e-01   8.392470e-01   2.943313e-01  
 6.121857e-09   5.142360e-02   8.390677e-01   8.390699e-01   2.882261e-01  
 7.121857e-09   5.982360e-02   8.388502e-01   8.388529e-01   2.823216e-01  
 8.121857e-09   6.822360e-02   8.385846e-01   8.385879e-01   2.765885e-01  
 9.121857e-09   7.662360e-02   8.382613e-01   8.382653e-01   2.709998e-01  
 1.012185e-08   8.502360e-02   8.378695e-01   8.378746e-01   2.655308e-01  
 1.112185e-08   9.342360e-02   8.373973e-01   8.374035e-01   2.601594e-01  
 1.212185e-08   1.018236e-01   8.368314e-01   8.368390e-01   2.548654e-01  
 1.312185e-08   1.102236e-01   8.361577e-01   8.361670e-01   2.496309e-01  
 1.412185e-08   1.186236e-01   8.353616e-01   8.353729e-01   2.444389e-01  
 1.512185e-08   1.270236e-01   8.344287e-01   8.344425e-01   2.392742e-01  
 1.612185e-08   1.354236e-01   8.333452e-01   8.333619e-01   2.341221e-01  
 1.712185e-08   1.438236e-01   8.320987e-01   8.321188e-01   2.289691e-01  
 1.812185e-08   1.522236e-01   8.306787e-01   8.307027e-01   2.238022e-01  
 1.912185e-08   1.606236e-01   8.290771e-01   8.291055e-01   2.186097e-01  
 2.012185e-08   1.690236e-01   8.272883e-01   8.273217e-01   2.133809e-01  
 2.112185e-08   1.774236e-01   8.253094e-01   8.253483e-01   2.081062e-01  
 2.212185e-08   1.858236e-01   8.231399e-01   8.231848e-01   2.027778e-01  
 2.312185e-08   1.942236e-01   8.207809e-01   8.208323e-01   1.973892e-01  
 2.412185e-08   2.026236e-01   8.182348e-01   8.182933e-01   1.919358e-01  
 2.512185e-08   2.110236e-01   8.155047e-01   8.155709e-01   1.864147e-01  
 2.612185e-08   2.194236e-01   8.125935e-01   8.126680e-01   1.808244e-01  
 2.712185e-08   2.278236e-01   8.095033e-01   8.095871e-01   1.751650e-01  
 2.812185e-08   2.362236e-01   8.062352e-01   8.063295e-01   1.694377e-01  
 2.912185e-08   2.446236e-01   8.027888e-01   8.028951e-01   1.636447e-01  
 3.012185e-08   2.530236e-01   7.991618e-01   7.992818e-01   1.577890e-01  
 3.112185e-08   2.614236e-01   7.953496e-01   7.954858e-01   1.518743e-01  
 3.212185e-08   2.698236e-01   7.913452e-01   7.915004e-01   1.459050e-01  
 3.312185e-08   2.782236e-01   7.871387e-01   7.873166e-01   1.398859e-01  
 3.412185e-08   2.866236e-01   7.827164e-01   7.829216e-01   1.338229e-01  
 3.512185e-08   2.950236e-01   7.780597e-01   7.782984e-01   1.277225e-01  
 3.612185e-08   3.034236e-01   7.731436e-01   7.734238e-01   1.215928e-01  
 3.712185e-08   3.118236e-01   7.679332e-01   7.682659e-01   1.154438e-01  
 3.812185e-08   3.202236e-01   7.623785e-01   7.627790e-01   1.092890e-01  
 3.912185e-08   3.286236e-01   7.564042e-01   7.568954e-01   1.031474e-01  
 4.012185e-08   3.370236e-01   7.498905e-01   7.505084e-01   9.704780e-02  
 4.112185e-08   3.454236e-01   7.426303e-01   7.434379e-01   9.103559e-02  
 4.212185e-08   3.538236e-01   7.342288e-01   7.353520e-01   8.518398e-02  
 4.305144e-08   3.616321e-01   7.246517e-01   7.263363e-01   7.998430e-02  
 4.352301e-08   3.655933e-01   7.186433e-01   7.208505e-01   7.747113e-02  
 4.392430e-08   3.689641e-01   7.125380e-01   7.154535e-01   7.541278e-02  
 4.431640e-08   3.722577e-01   7.052429e-01   7.092872e-01   7.348018e-02  
 4.461841e-08   3.747946e-01   6.983241e-01   7.037558e-01   7.204756e-02  
 4.485195e-08   3.767564e-01   6.919303e-01   6.989224e-01   7.097387e-02  
 4.507020e-08   3.785897e-01   6.849465e-01   6.939305e-01   6.999755e-02  
 4.531684e-08   3.806614e-01   6.757148e-01   6.877430e-01   6.892547e-02  
 4.558125e-08   3.828825e-01   6.641510e-01   6.805493e-01   6.781223e-02  
 4.584252e-08   3.850772e-01   6.511043e-01   6.730382e-01   6.674784e-02  
 4.605850e-08   3.868914e-01   6.392487e-01   6.666735e-01   6.589370e-02  
 4.624145e-08   3.884282e-01   6.285613e-01   6.612595e-01   6.518768e-02  
 4.642872e-08   3.900013e-01   6.171015e-01   6.557559e-01   6.448096e-02  
 4.664442e-08   3.918131e-01   6.033506e-01   6.495189e-01   6.368618e-02  
 4.688036e-08   3.937950e-01   5.877427e-01   6.428664e-01   6.283915e-02  
 4.713889e-08   3.959667e-01   5.700791e-01   6.358119e-01   6.193633e-02  
 4.744612e-08   3.985474e-01   5.484676e-01   6.277608e-01   6.089558e-02  
 4.782976e-08   4.017700e-01   5.207355e-01   6.181958e-01   5.964090e-02  
 4.830239e-08   4.057400e-01   4.857407e-01   6.070884e-01   5.815702e-02  
 4.886917e-08   4.105010e-01   4.430232e-01   5.946116e-01   5.645672e-02  
 4.951405e-08   4.159180e-01   3.940575e-01   5.813369e-01   5.461274e-02  
 5.018884e-08   4.215862e-01   3.431699e-01   5.682989e-01   5.277158e-02  
 5.085133e-08   4.271512e-01   2.943507e-01   5.561915e-01   5.103934e-02  
 5.148489e-08   4.324731e-01   2.495113e-01   5.451493e-01   4.944354e-02  
 5.207923e-08   4.374655e-01   2.099126e-01   5.351995e-01   4.799442e-02  
 5.260822e-08   4.419090e-01   1.776141e-01   5.266359e-01   4.673980e-02  
 5.303286e-08   4.454760e-01   1.547083e-01   5.199411e-01   4.575476e-02  
 5.334537e-08   4.481011e-01   1.403163e-01   5.151083e-01   4.504162e-02  
 5.358910e-08   4.501484e-01   1.308669e-01   5.113915e-01   4.449208e-02  
 5.385411e-08   4.523745e-01   1.223989e-01   5.073999e-01   4.390093e-02  
 5.411911e-08   4.546005e-01   1.156025e-01   5.034580e-01   4.331621e-02  
 5.435172e-08   4.565545e-01   1.107423e-01   5.000372e-01   4.280811e-02  
 5.455695e-08   4.582784e-01   1.071177e-01   4.970485e-01   4.236370e-02  
 5.477179e-08   4.600830e-01   1.038357e-01   4.939485e-01   4.190229e-02  
 5.501921e-08   4.621614e-01   1.005548e-01   4.904134e-01   4.137559e-02  
 5.529723e-08   4.644967e-01   9.734952e-02   4.864845e-01   4.078963e-02  
 5.560599e-08   4.670903e-01   9.423300e-02   4.821729e-01   4.014595e-02  
 5.596732e-08   4.701254e-01   9.102078e-02   4.771937e-01   3.940187e-02  
 5.640736e-08   4.738218e-01   8.756686e-02   4.712222e-01   3.850864e-02  
 5.694570e-08   4.783439e-01   8.382705e-02   4.640474e-01   3.743447e-02  
 5.760979e-08   4.839222e-01   7.972726e-02   4.553837e-01   3.613650e-02  
 5.844893e-08   4.909710e-01   7.510439e-02   4.447115e-01   3.453718e-02  
 5.944893e-08   4.993710e-01   7.015485e-02   4.323650e-01   3.268778e-02  
 6.044893e-08   5.077710e-01   6.563787e-02   4.203922e-01   3.089676e-02  
 6.144893e-08   5.161710e-01   6.144486e-02   4.087672e-01   2.916142e-02  
 6.244893e-08   5.245710e-01   5.751015e-02   3.974692e-01   2.747956e-02  
 6.344893e-08   5.329710e-01   5.379090e-02   3.864814e-01   2.584932e-02  
 6.444893e-08   5.413710e-01   5.025762e-02   3.757907e-01   2.426918e-02  
 6.544893e-08   5.497710e-01   4.688922e-02   3.653871e-01   2.273789e-02  
 6.644893e-08   5.581710e-01   4.367012e-02   3.552631e-01   2.125444e-02  
 6.744893e-08   5.665710e-01   4.058864e-02   3.454137e-01   1.981805e-02  
 6.844893e-08   5.749710e-01   3.763587e-02   3.358364e-01   1.842820e-02  
 6.944893e-08   5.833710e-01   3.480512e-02   3.265308e-01   1.708458e-02  
 7.044893e-08   5.917710e-01   3.209138e-02   3.174992e-01   1.578717e-02  
 7.144893e-08   6.001710e-01   2.949117e-02   3.087465e-01   1.453621e-02  
 7.244893e-08   6.085710e-01   2.700228e-02   3.002808e-01   1.333226e-02  
 7.344893e-08   6.169710e-01   2.462366e-02   2.921137e-01   1.217617e-02  
 7.444893e-08   6.253710e-01   2.235536e-02   2.842615e-01   1.106914e-02  
 7.544893e-08   6.337710e-01   2.019837e-02   2.767460e-01   1.001264e-02  
 7.644893e-08   6.421710e-01   1.815449e-02   2.695959e-01   9.008446e-03  
 7.744893e-08   6.505710e-01   1.622617e-02   2.628476e-01   8.058497e-03  
 7.844893e-08   6.589710e-01   1.441625e-02   2.565457e-01   7.164855e-03  
 7.944893e-08   6.673710e-01   1.272766e-02   2.507400e-01   6.329532e-03  
 8.044893e-08   6.757710e-01   1.116309e-02   2.454788e-01   5.554332e-03  
 8.144893e-08   6.841710e-01   9.724571e-03   2.407977e-01   4.840662e-03  
 8.244893e-08   6.925710e-01   8.413082e-03   2.367071e-01   4.189339e-03  
 8.344893e-08   7.009710e-01   7.228229e-03   2.331863e-01   3.600425e-03  
 8.444893e-08   7.093710e-01   6.167966e-03   2.301871e-01   3.073103e-03  
 8.544893e-08   7.177710e-01   5.228477e-03   2.276450e-01   2.605621e-03  
 8.644893e-08   7.261710e-01   4.404196e-03   2.254915e-01   2.195314e-03  
 8.744893e-08   7.345710e-01   3.688003e-03   2.236621e-01   1.838709e-03  
 8.844893e-08   7.429710e-01   3.071526e-03   2.221009e-01   1.531683e-03  
 8.944893e-08   7.513710e-01   2.545549e-03   2.207606e-01   1.269677e-03  
 9.044893e-08   7.597710e-01   2.100433e-03   2.196028e-01   1.047907e-03  
 9.144893e-08   7.681710e-01   1.726523e-03   2.185962e-01   8.615796e-04  
 9.244893e-08   7.765710e-01   1.414493e-03   2.177155e-01   7.060553e-04  
 9.344893e-08   7.849710e-01   1.155603e-03   2.169403e-01   5.769893e-04  
 9.444893e-08   7.933710e-01   9.418775e-04   2.162539e-01   4.704133e-04  
 9.544893e-08   8.017710e-01   7.661903e-04   2.156426e-01   3.827830e-04  
 9.644893e-08   8.101710e-01   6.222941e-04   2.150955e-01   3.109899e-04  
 9.744893e-08   8.185710e-01   5.047941e-04   2.146034e-01   2.523497e-04  
 9.844893e-08   8.269710e-01   4.090904e-04   2.141587e-01   2.045731e-04  
 9.922446e-08   8.334855e-01   3.473807e-04   2.138425e-01   1.737585e-04  
 1.000000e-07   8.400000e-01   2.948907e-04   2.135485e-01   1.475415e-04  
