
time (s)       getData("/nvtc getData("/SNMh getData("/SNMr getData("/SNMw

 0.000000e+00   0.000000e+00   1.179530e+00   1.179531e+00   5.001715e-01  
 1.362724e-11   1.608014e-04   1.179532e+00   1.179533e+00   4.998061e-01  
 2.341937e-11   2.763485e-04   1.179530e+00   1.179532e+00   4.997521e-01  
 3.860675e-11   4.555597e-04   1.179528e+00   1.179529e+00   4.996772e-01  
 5.946829e-11   7.017258e-04   1.179525e+00   1.179527e+00   4.995736e-01  
 1.011913e-10   1.194058e-03   1.179520e+00   1.179521e+00   4.993671e-01  
 1.846375e-10   2.178722e-03   1.179508e+00   1.179509e+00   4.989526e-01  
 2.556111e-10   3.016212e-03   1.179497e+00   1.179498e+00   4.985986e-01  
 3.350491e-10   3.953579e-03   1.179485e+00   1.179486e+00   4.982007e-01  
 4.140796e-10   4.886140e-03   1.179473e+00   1.179474e+00   4.978033e-01  
 4.965697e-10   5.859522e-03   1.179460e+00   1.179461e+00   4.973866e-01  
 5.811040e-10   6.857027e-03   1.179447e+00   1.179448e+00   4.969579e-01  
 6.684931e-10   7.888219e-03   1.179432e+00   1.179434e+00   4.965126e-01  
 7.586369e-10   8.951915e-03   1.179417e+00   1.179418e+00   4.960513e-01  
 8.518383e-10   1.005169e-02   1.179401e+00   1.179402e+00   4.955722e-01  
 9.482584e-10   1.118944e-02   1.179384e+00   1.179385e+00   4.950743e-01  
 1.048147e-09   1.236814e-02   1.179365e+00   1.179367e+00   4.945560e-01  
 1.151754e-09   1.359070e-02   1.179346e+00   1.179347e+00   4.940158e-01  
 1.246426e-09   1.470783e-02   1.179328e+00   1.179329e+00   4.935200e-01  
 1.359511e-09   1.604223e-02   1.179305e+00   1.179307e+00   4.929249e-01  
 1.462480e-09   1.725726e-02   1.179284e+00   1.179285e+00   4.923804e-01  
 1.563422e-09   1.844838e-02   1.179262e+00   1.179264e+00   4.918442e-01  
 1.669004e-09   1.969425e-02   1.179239e+00   1.179241e+00   4.912810e-01  
 1.777558e-09   2.097518e-02   1.179215e+00   1.179217e+00   4.906992e-01  
 1.889260e-09   2.229327e-02   1.179189e+00   1.179191e+00   4.900978e-01  
 2.005247e-09   2.366192e-02   1.179161e+00   1.179163e+00   4.894704e-01  
 2.125861e-09   2.508516e-02   1.179131e+00   1.179133e+00   4.888150e-01  
 2.251410e-09   2.656664e-02   1.179099e+00   1.179101e+00   4.881294e-01  
 2.382398e-09   2.811229e-02   1.179064e+00   1.179066e+00   4.874106e-01  
 2.519325e-09   2.972803e-02   1.179026e+00   1.179029e+00   4.866555e-01  
 2.662725e-09   3.142016e-02   1.178985e+00   1.178988e+00   4.858606e-01  
 2.813221e-09   3.319601e-02   1.178940e+00   1.178943e+00   4.850219e-01  
 2.971522e-09   3.506396e-02   1.178891e+00   1.178893e+00   4.841351e-01  
 3.138440e-09   3.703359e-02   1.178836e+00   1.178839e+00   4.831948e-01  
 3.314916e-09   3.911601e-02   1.178776e+00   1.178779e+00   4.821951e-01  
 3.502052e-09   4.132421e-02   1.178709e+00   1.178712e+00   4.811288e-01  
 3.701140e-09   4.367345e-02   1.178633e+00   1.178636e+00   4.799875e-01  
 3.913716e-09   4.618185e-02   1.178548e+00   1.178551e+00   4.787614e-01  
 4.141620e-09   4.887111e-02   1.178451e+00   1.178454e+00   4.774384e-01  
 4.387077e-09   5.176751e-02   1.178340e+00   1.178343e+00   4.760041e-01  
 4.652817e-09   5.490325e-02   1.178211e+00   1.178215e+00   4.744403e-01  
 4.942226e-09   5.831827e-02   1.178059e+00   1.178064e+00   4.727249e-01  
 5.259572e-09   6.206295e-02   1.177880e+00   1.177885e+00   4.708294e-01  
 5.610325e-09   6.620184e-02   1.177664e+00   1.177669e+00   4.687172e-01  
 6.001642e-09   7.081937e-02   1.177399e+00   1.177405e+00   4.663401e-01  
 6.443098e-09   7.602856e-02   1.177067e+00   1.177074e+00   4.636328e-01  
 6.947865e-09   8.198481e-02   1.176641e+00   1.176648e+00   4.605048e-01  
 7.534659e-09   8.890898e-02   1.176076e+00   1.176085e+00   4.568253e-01  
 8.231154e-09   9.712762e-02   1.175300e+00   1.175311e+00   4.523977e-01  
 9.080338e-09   1.071479e-01   1.174179e+00   1.174193e+00   4.469088e-01  
 1.008033e-08   1.189479e-01   1.172586e+00   1.172604e+00   4.403112e-01  
 1.108033e-08   1.307479e-01   1.170668e+00   1.170691e+00   4.335571e-01  
 1.208033e-08   1.425479e-01   1.168406e+00   1.168434e+00   4.266318e-01  
 1.308033e-08   1.543479e-01   1.165788e+00   1.165824e+00   4.195192e-01  
 1.408033e-08   1.661479e-01   1.162818e+00   1.162861e+00   4.122043e-01  
 1.508033e-08   1.779479e-01   1.159508e+00   1.159560e+00   4.046755e-01  
 1.608033e-08   1.897479e-01   1.155879e+00   1.155939e+00   3.969254e-01  
 1.708033e-08   2.015479e-01   1.151952e+00   1.152023e+00   3.889520e-01  
 1.808033e-08   2.133479e-01   1.147751e+00   1.147834e+00   3.807581e-01  
 1.908033e-08   2.251479e-01   1.143299e+00   1.143394e+00   3.723503e-01  
 2.008033e-08   2.369479e-01   1.138610e+00   1.138721e+00   3.637375e-01  
 2.108033e-08   2.487479e-01   1.133698e+00   1.133828e+00   3.549296e-01  
 2.208033e-08   2.605479e-01   1.128570e+00   1.128722e+00   3.459366e-01  
 2.308033e-08   2.723479e-01   1.123231e+00   1.123409e+00   3.367683e-01  
 2.408033e-08   2.841479e-01   1.117681e+00   1.117891e+00   3.274338e-01  
 2.508033e-08   2.959479e-01   1.111920e+00   1.112169e+00   3.179420e-01  
 2.608033e-08   3.077479e-01   1.105944e+00   1.106241e+00   3.083016e-01  
 2.708033e-08   3.195479e-01   1.099751e+00   1.100106e+00   2.985216e-01  
 2.808033e-08   3.313479e-01   1.093335e+00   1.093764e+00   2.886114e-01  
 2.908033e-08   3.431479e-01   1.086694e+00   1.087213e+00   2.785811e-01  
 3.008033e-08   3.549479e-01   1.079821e+00   1.080453e+00   2.684417e-01  
 3.108033e-08   3.667479e-01   1.072710e+00   1.073485e+00   2.582051e-01  
 3.208033e-08   3.785479e-01   1.065353e+00   1.066307e+00   2.478846e-01  
 3.308033e-08   3.903479e-01   1.057741e+00   1.058920e+00   2.374946e-01  
 3.408033e-08   4.021479e-01   1.049859e+00   1.051323e+00   2.270515e-01  
 3.508033e-08   4.139479e-01   1.041688e+00   1.043514e+00   2.165739e-01  
 3.608033e-08   4.257479e-01   1.033200e+00   1.035488e+00   2.060833e-01  
 3.708033e-08   4.375479e-01   1.024355e+00   1.027232e+00   1.956066e-01  
 3.808033e-08   4.493479e-01   1.015090e+00   1.018728e+00   1.851786e-01  
 3.908033e-08   4.611479e-01   1.005308e+00   1.009937e+00   1.748495e-01  
 4.008033e-08   4.729479e-01   9.948465e-01   1.000796e+00   1.646991e-01  
 4.108033e-08   4.847479e-01   9.834112e-01   9.911931e-01   1.548637e-01  
 4.208033e-08   4.965479e-01   9.704226e-01   9.809270e-01   1.455746e-01  
 4.308033e-08   5.083479e-01   9.545328e-01   9.696316e-01   1.371528e-01  
 4.398683e-08   5.190446e-01   9.347334e-01   9.579577e-01   1.304756e-01  
 4.469901e-08   5.274484e-01   9.112102e-01   9.473065e-01   1.258667e-01  
 4.521330e-08   5.335170e-01   8.867736e-01   9.385336e-01   1.228388e-01  
 4.560866e-08   5.381822e-01   8.628970e-01   9.310949e-01   1.206554e-01  
 4.595244e-08   5.422388e-01   8.389392e-01   9.241497e-01   1.188440e-01  
 4.628812e-08   5.461998e-01   8.131061e-01   9.169907e-01   1.171437e-01  
 4.663156e-08   5.502525e-01   7.846219e-01   9.093578e-01   1.154654e-01  
 4.699482e-08   5.545388e-01   7.526561e-01   9.010442e-01   1.137493e-01  
 4.738858e-08   5.591852e-01   7.163093e-01   8.918668e-01   1.119491e-01  
 4.782314e-08   5.643131e-01   6.746510e-01   8.816578e-01   1.100249e-01  
 4.831486e-08   5.701153e-01   6.262088e-01   8.701218e-01   1.079160e-01  
 4.889913e-08   5.770097e-01   5.678135e-01   8.565492e-01   1.054902e-01  
 4.965587e-08   5.859392e-01   4.926530e-01   8.392994e-01   1.024564e-01  
 5.043383e-08   5.951193e-01   4.183332e-01   8.220088e-01   9.944274e-02  
 5.114178e-08   6.034731e-01   3.554899e-01   8.066703e-01   9.677785e-02  
 5.171826e-08   6.102755e-01   3.091548e-01   7.944492e-01   9.465505e-02  
 5.220541e-08   6.160239e-01   2.744590e-01   7.843010e-01   9.289075e-02  
 5.263072e-08   6.210425e-01   2.484640e-01   7.755695e-01   9.137079e-02  
 5.300194e-08   6.254230e-01   2.297713e-01   7.680420e-01   9.005861e-02  
 5.333249e-08   6.293234e-01   2.164705e-01   7.614103e-01   8.890101e-02  
 5.364341e-08   6.329922e-01   2.065395e-01   7.552314e-01   8.782105e-02  
 5.395743e-08   6.366976e-01   1.985113e-01   7.490472e-01   8.673868e-02  
 5.429481e-08   6.406787e-01   1.915181e-01   7.424641e-01   8.558483e-02  
 5.467454e-08   6.451596e-01   1.850419e-01   7.351281e-01   8.429695e-02  
 5.511764e-08   6.503882e-01   1.787268e-01   7.266633e-01   8.280808e-02  
 5.564860e-08   6.566535e-01   1.722997e-01   7.166500e-01   8.104295e-02  
 5.629744e-08   6.643098e-01   1.655158e-01   7.045981e-01   7.891276e-02  
 5.710206e-08   6.738043e-01   1.581346e-01   6.899220e-01   7.631027e-02  
 5.810206e-08   6.856043e-01   1.499298e-01   6.720774e-01   7.313343e-02  
 5.910206e-08   6.974043e-01   1.424232e-01   6.546503e-01   7.001773e-02  
 6.010206e-08   7.092043e-01   1.354041e-01   6.376245e-01   6.696112e-02  
 6.110206e-08   7.210043e-01   1.287436e-01   6.209886e-01   6.396221e-02  
 6.210206e-08   7.328043e-01   1.223686e-01   6.047355e-01   6.102016e-02  
 6.310206e-08   7.446043e-01   1.162318e-01   5.888616e-01   5.813454e-02  
 6.410206e-08   7.564043e-01   1.103017e-01   5.733666e-01   5.530522e-02  
 6.510206e-08   7.682043e-01   1.045563e-01   5.582532e-01   5.253236e-02  
 6.610206e-08   7.800043e-01   9.898053e-02   5.435265e-01   4.981630e-02  
 6.710206e-08   7.918043e-01   9.356329e-02   5.291943e-01   4.715749e-02  
 6.810206e-08   8.036043e-01   8.829667e-02   5.152670e-01   4.455650e-02  
 6.910206e-08   8.154043e-01   8.317482e-02   5.017577e-01   4.201392e-02  
 7.010206e-08   8.272043e-01   7.819334e-02   4.886826e-01   3.953033e-02  
 7.110206e-08   8.390043e-01   7.334886e-02   4.760619e-01   3.710627e-02  
 7.210206e-08   8.508043e-01   6.863871e-02   4.639206e-01   3.474224e-02  
 7.310206e-08   8.626043e-01   6.406073e-02   4.522904e-01   3.243863e-02  
 7.410206e-08   8.744043e-01   5.961309e-02   4.412116e-01   3.019578e-02  
 7.510206e-08   8.862043e-01   5.529429e-02   4.307352e-01   2.801396e-02  
 7.610206e-08   8.980043e-01   5.110314e-02   4.209238e-01   2.589346e-02  
 7.710206e-08   9.098043e-01   4.703892e-02   4.118495e-01   2.383466e-02  
 7.810206e-08   9.216043e-01   4.310158e-02   4.035841e-01   2.183818e-02  
 7.910206e-08   9.334043e-01   3.929205e-02   3.961817e-01   1.990503e-02  
 8.010206e-08   9.452043e-01   3.561263e-02   3.896586e-01   1.803689e-02  
 8.110206e-08   9.570043e-01   3.206744e-02   3.839829e-01   1.623624e-02  
 8.210206e-08   9.688043e-01   2.866288e-02   3.790816e-01   1.450672e-02  
 8.310206e-08   9.806043e-01   2.540796e-02   3.748610e-01   1.285321e-02  
 8.410206e-08   9.924043e-01   2.231446e-02   3.712261e-01   1.128197e-02  
 8.510206e-08   1.004204e+00   1.939677e-02   3.680925e-01   9.800542e-03  
 8.610206e-08   1.016004e+00   1.667121e-02   3.653907e-01   8.417390e-03  
 8.710206e-08   1.027804e+00   1.415488e-02   3.630650e-01   7.141298e-03  
 8.810206e-08   1.039604e+00   1.186385e-02   3.610698e-01   5.980456e-03  
 8.910206e-08   1.051404e+00   9.811056e-03   3.593663e-01   4.941371e-03  
 9.010206e-08   1.063204e+00   8.004086e-03   3.579199e-01   4.027750e-03  
 9.110206e-08   1.075004e+00   6.443445e-03   3.566982e-01   3.239628e-03  
 9.210206e-08   1.086804e+00   5.121676e-03   3.556706e-01   2.572968e-03  
 9.310206e-08   1.098604e+00   4.023704e-03   3.548084e-01   2.019864e-03  
 9.410206e-08   1.110404e+00   3.128304e-03   3.540853e-01   1.569332e-03  
 9.510206e-08   1.122204e+00   2.410337e-03   3.534780e-01   1.208463e-03  
 9.594633e-08   1.132166e+00   1.922653e-03   3.530404e-01   9.635577e-04  
 9.658782e-08   1.139736e+00   1.614248e-03   3.527470e-01   8.087801e-04  
 9.708209e-08   1.145568e+00   1.408599e-03   3.525411e-01   7.056169e-04  
 9.747496e-08   1.150204e+00   1.262911e-03   3.523888e-01   6.325553e-04  
 9.779602e-08   1.153993e+00   1.154528e-03   3.522713e-01   5.782150e-04  
 9.806696e-08   1.157190e+00   1.069986e-03   3.521765e-01   5.358351e-04  
 9.830224e-08   1.159966e+00   1.001384e-03   3.520975e-01   5.014511e-04  
 9.851105e-08   1.162430e+00   9.440408e-04   3.520297e-01   4.727132e-04  
 9.869957e-08   1.164654e+00   8.949832e-04   3.519703e-01   4.481305e-04  
 9.887209e-08   1.166690e+00   8.522436e-04   3.519175e-01   4.267158e-04  
 9.903161e-08   1.168573e+00   8.144789e-04   3.518698e-01   4.077953e-04  
 9.918031e-08   1.170327e+00   7.807354e-04   3.518264e-01   3.908907e-04  
 9.931981e-08   1.171973e+00   7.503115e-04   3.517866e-01   3.756501e-04  
 9.945135e-08   1.173526e+00   7.226762e-04   3.517497e-01   3.618073e-04  
 9.957593e-08   1.174995e+00   6.974175e-04   3.517155e-01   3.491558e-04  
 9.969432e-08   1.176393e+00   6.742086e-04   3.516836e-01   3.375315e-04  
 9.980718e-08   1.177724e+00   6.527850e-04   3.516537e-01   3.268019e-04  
 9.991504e-08   1.178997e+00   6.329295e-04   3.516255e-01   3.168582e-04  
 1.000000e-07   1.180000e+00   6.177077e-04   3.516037e-01   3.092353e-04  
