
time (s)       getData("/nvtc getData("/SNMh getData("/SNMr getData("/SNMw

 0.000000e+00   0.000000e+00   9.696777e-01   9.696784e-01   3.943260e-01  
 1.488831e-11   1.444166e-04   9.696797e-01   9.696804e-01   3.942352e-01  
 2.573953e-11   2.496734e-04   9.696789e-01   9.696796e-01   3.941646e-01  
 4.214402e-11   4.087970e-04   9.696776e-01   9.696783e-01   3.940576e-01  
 7.495299e-11   7.270440e-04   9.696750e-01   9.696757e-01   3.938435e-01  
 1.405709e-10   1.363538e-03   9.696696e-01   9.696704e-01   3.934154e-01  
 2.718068e-10   2.636526e-03   9.696587e-01   9.696595e-01   3.925592e-01  
 4.746874e-10   4.604468e-03   9.696412e-01   9.696420e-01   3.912360e-01  
 7.145338e-10   6.930978e-03   9.696193e-01   9.696202e-01   3.896725e-01  
 9.856785e-10   9.561082e-03   9.695930e-01   9.695939e-01   3.879070e-01  
 1.289769e-09   1.251076e-02   9.695614e-01   9.695624e-01   3.859301e-01  
 1.625264e-09   1.576506e-02   9.695237e-01   9.695247e-01   3.837539e-01  
 1.994495e-09   1.934660e-02   9.694785e-01   9.694797e-01   3.813660e-01  
 2.403143e-09   2.331049e-02   9.694237e-01   9.694250e-01   3.787332e-01  
 2.858542e-09   2.772786e-02   9.693560e-01   9.693574e-01   3.758128e-01  
 3.370870e-09   3.269744e-02   9.692705e-01   9.692722e-01   3.725462e-01  
 3.954706e-09   3.836064e-02   9.691597e-01   9.691616e-01   3.688490e-01  
 4.631231e-09   4.492294e-02   9.690108e-01   9.690131e-01   3.645996e-01  
 5.433027e-09   5.270036e-02   9.688015e-01   9.688042e-01   3.596110e-01  
 6.414896e-09   6.222449e-02   9.684872e-01   9.684906e-01   3.535689e-01  
 7.414896e-09   7.192449e-02   9.680879e-01   9.680923e-01   3.474830e-01  
 8.414896e-09   8.162449e-02   9.675919e-01   9.675975e-01   3.414545e-01  
 9.414896e-09   9.132449e-02   9.669801e-01   9.669871e-01   3.354705e-01  
 1.041489e-08   1.010244e-01   9.662318e-01   9.662407e-01   3.295168e-01  
 1.141489e-08   1.107244e-01   9.653255e-01   9.653367e-01   3.235784e-01  
 1.241489e-08   1.204244e-01   9.642396e-01   9.642536e-01   3.176394e-01  
 1.341489e-08   1.301244e-01   9.629541e-01   9.629714e-01   3.116835e-01  
 1.441489e-08   1.398244e-01   9.614517e-01   9.614729e-01   3.056945e-01  
 1.541489e-08   1.495244e-01   9.597190e-01   9.597449e-01   2.996563e-01  
 1.641489e-08   1.592244e-01   9.577476e-01   9.577787e-01   2.935533e-01  
 1.741489e-08   1.689244e-01   9.555338e-01   9.555709e-01   2.873717e-01  
 1.841489e-08   1.786244e-01   9.530792e-01   9.531227e-01   2.810994e-01  
 1.941489e-08   1.883244e-01   9.503887e-01   9.504394e-01   2.747267e-01  
 2.041489e-08   1.980244e-01   9.474705e-01   9.475288e-01   2.682468e-01  
 2.141489e-08   2.077244e-01   9.443337e-01   9.444003e-01   2.616555e-01  
 2.241489e-08   2.174244e-01   9.409878e-01   9.410636e-01   2.549512e-01  
 2.341489e-08   2.271244e-01   9.374413e-01   9.375274e-01   2.481344e-01  
 2.441489e-08   2.368244e-01   9.337012e-01   9.337990e-01   2.412076e-01  
 2.541489e-08   2.465244e-01   9.297725e-01   9.298837e-01   2.341741e-01  
 2.641489e-08   2.562244e-01   9.256579e-01   9.257847e-01   2.270382e-01  
 2.741489e-08   2.659244e-01   9.213580e-01   9.215030e-01   2.198049e-01  
 2.841489e-08   2.756244e-01   9.168710e-01   9.170378e-01   2.124795e-01  
 2.941489e-08   2.853244e-01   9.121935e-01   9.123861e-01   2.050677e-01  
 3.041489e-08   2.950244e-01   9.073198e-01   9.075434e-01   1.975754e-01  
 3.141489e-08   3.047244e-01   9.022422e-01   9.025032e-01   1.900093e-01  
 3.241489e-08   3.144244e-01   8.969508e-01   8.972574e-01   1.823765e-01  
 3.341489e-08   3.241244e-01   8.914325e-01   8.917953e-01   1.746850e-01  
 3.441489e-08   3.338244e-01   8.856709e-01   8.861031e-01   1.669437e-01  
 3.541489e-08   3.435244e-01   8.796438e-01   8.801632e-01   1.591635e-01  
 3.641489e-08   3.532244e-01   8.733213e-01   8.739515e-01   1.513570e-01  
 3.741489e-08   3.629244e-01   8.666613e-01   8.674346e-01   1.435406e-01  
 3.841489e-08   3.726244e-01   8.596018e-01   8.605640e-01   1.357361e-01  
 3.941489e-08   3.823244e-01   8.520464e-01   8.532659e-01   1.279758e-01  
 4.041489e-08   3.920244e-01   8.438361e-01   8.454217e-01   1.203100e-01  
 4.141489e-08   4.017244e-01   8.346840e-01   8.368277e-01   1.128226e-01  
 4.241489e-08   4.114244e-01   8.240132e-01   8.271065e-01   1.056516e-01  
 4.330153e-08   4.200249e-01   8.122055e-01   8.169392e-01   9.971595e-02  
 4.374089e-08   4.242866e-01   8.048913e-01   8.110626e-01   9.696828e-02  
 4.411750e-08   4.279397e-01   7.973181e-01   8.053944e-01   9.472847e-02  
 4.446638e-08   4.313239e-01   7.887356e-01   7.994964e-01   9.275171e-02  
 4.475747e-08   4.341475e-01   7.799770e-01   7.940194e-01   9.117450e-02  
 4.499663e-08   4.364673e-01   7.713998e-01   7.891114e-01   8.992656e-02  
 4.523489e-08   4.387785e-01   7.614259e-01   7.838580e-01   8.872469e-02  
 4.550869e-08   4.414343e-01   7.481051e-01   7.774145e-01   8.739228e-02  
 4.578171e-08   4.440826e-01   7.329166e-01   7.706430e-01   8.611249e-02  
 4.603592e-08   4.465484e-01   7.172592e-01   7.641290e-01   8.496178e-02  
 4.625581e-08   4.486814e-01   7.027118e-01   7.584076e-01   8.399609e-02  
 4.647037e-08   4.507626e-01   6.877571e-01   7.528017e-01   8.307858e-02  
 4.671086e-08   4.530954e-01   6.702376e-01   7.465396e-01   8.207728e-02  
 4.698011e-08   4.557070e-01   6.498245e-01   7.396023e-01   8.098775e-02  
 4.727196e-08   4.585380e-01   6.269076e-01   7.322088e-01   7.984120e-02  
 4.759843e-08   4.617048e-01   6.004834e-01   7.241214e-01   7.859721e-02  
 4.797440e-08   4.653516e-01   5.692539e-01   7.150615e-01   7.721005e-02  
 4.839824e-08   4.694630e-01   5.333184e-01   7.051697e-01   7.569807e-02  
 4.885902e-08   4.739325e-01   4.937411e-01   6.947818e-01   7.410924e-02  
 4.934754e-08   4.786711e-01   4.516255e-01   6.841505e-01   7.247949e-02  
 4.985484e-08   4.835920e-01   4.081970e-01   6.734868e-01   7.083936e-02  
 5.037097e-08   4.885984e-01   3.648444e-01   6.629915e-01   6.921882e-02  
 5.088755e-08   4.936093e-01   3.228303e-01   6.528088e-01   6.763999e-02  
 5.139780e-08   4.985587e-01   2.832435e-01   6.430365e-01   6.611844e-02  
 5.189202e-08   5.033526e-01   2.473207e-01   6.338175e-01   6.467725e-02  
 5.235038e-08   5.077986e-01   2.168272e-01   6.254659e-01   6.336683e-02  
 5.274324e-08   5.116095e-01   1.936088e-01   6.184487e-01   6.226228e-02  
 5.305697e-08   5.146526e-01   1.776177e-01   6.129331e-01   6.139188e-02  
 5.331660e-08   5.171710e-01   1.664200e-01   6.084246e-01   6.067902e-02  
 5.359126e-08   5.198353e-01   1.566423e-01   6.037082e-01   5.993196e-02  
 5.386621e-08   5.225022e-01   1.487665e-01   5.990395e-01   5.919118e-02  
 5.411283e-08   5.248944e-01   1.430157e-01   5.948951e-01   5.853252e-02  
 5.432747e-08   5.269764e-01   1.387928e-01   5.913202e-01   5.796361e-02  
 5.454668e-08   5.291027e-01   1.350562e-01   5.876991e-01   5.738666e-02  
 5.479756e-08   5.315363e-01   1.313278e-01   5.835909e-01   5.673125e-02  
 5.508169e-08   5.342924e-01   1.276390e-01   5.789834e-01   5.599517e-02  
 5.539654e-08   5.373464e-01   1.240430e-01   5.739321e-01   5.518700e-02  
 5.576205e-08   5.408919e-01   1.203431e-01   5.681364e-01   5.425829e-02  
 5.620620e-08   5.452001e-01   1.163435e-01   5.611895e-01   5.314319e-02  
 5.675057e-08   5.504805e-01   1.119678e-01   5.528113e-01   5.179579e-02  
 5.742190e-08   5.569924e-01   1.071271e-01   5.426750e-01   5.016233e-02  
 5.826915e-08   5.652107e-01   1.016181e-01   5.301733e-01   4.814335e-02  
 5.926915e-08   5.749107e-01   9.570767e-02   5.158084e-01   4.581872e-02  
 6.026915e-08   5.846107e-01   9.025173e-02   5.018400e-01   4.355458e-02  
 6.126915e-08   5.943107e-01   8.513610e-02   4.882461e-01   4.134871e-02  
 6.226915e-08   6.040107e-01   8.029196e-02   4.750096e-01   3.919934e-02  
 6.326915e-08   6.137107e-01   7.567472e-02   4.621172e-01   3.710507e-02  
 6.426915e-08   6.234107e-01   7.125391e-02   4.495594e-01   3.506477e-02  
 6.526915e-08   6.331107e-01   6.700792e-02   4.373295e-01   3.307755e-02  
 6.626915e-08   6.428107e-01   6.292085e-02   4.254233e-01   3.114265e-02  
 6.726915e-08   6.525107e-01   5.898077e-02   4.138392e-01   2.925949e-02  
 6.826915e-08   6.622107e-01   5.517846e-02   4.025779e-01   2.742756e-02  
 6.926915e-08   6.719107e-01   5.150674e-02   3.916424e-01   2.564650e-02  
 7.026915e-08   6.816107e-01   4.795996e-02   3.810384e-01   2.391603e-02  
 7.126915e-08   6.913107e-01   4.453371e-02   3.707749e-01   2.223603e-02  
 7.226915e-08   7.010107e-01   4.122467e-02   3.608646e-01   2.060653e-02  
 7.326915e-08   7.107107e-01   3.803052e-02   3.513252e-01   1.902778e-02  
 7.426915e-08   7.204107e-01   3.494997e-02   3.421810e-01   1.750031e-02  
 7.526915e-08   7.301107e-01   3.198275e-02   3.334647e-01   1.602500e-02  
 7.626915e-08   7.398107e-01   2.912975e-02   3.252190e-01   1.460315e-02  
 7.726915e-08   7.495107e-01   2.639305e-02   3.174980e-01   1.323655e-02  
 7.826915e-08   7.592107e-01   2.377600e-02   3.103649e-01   1.192753e-02  
 7.926915e-08   7.689107e-01   2.128321e-02   3.038838e-01   1.067897e-02  
 8.026915e-08   7.786107e-01   1.892045e-02   2.981056e-01   9.494266e-03  
 8.126915e-08   7.883107e-01   1.669441e-02   2.930504e-01   8.377190e-03  
 8.226915e-08   7.980107e-01   1.461229e-02   2.886978e-01   7.331736e-03  
 8.326915e-08   8.077107e-01   1.268128e-02   2.849912e-01   6.361807e-03  
 8.426915e-08   8.174107e-01   1.090777e-02   2.818532e-01   5.470863e-03  
 8.526915e-08   8.271107e-01   9.296641e-03   2.792010e-01   4.661519e-03  
 8.626915e-08   8.368107e-01   7.850404e-03   2.769574e-01   3.935151e-03  
 8.726915e-08   8.465107e-01   6.568610e-03   2.750550e-01   3.291580e-03  
 8.826915e-08   8.562107e-01   5.447458e-03   2.734373e-01   2.728896e-03  
 8.926915e-08   8.659107e-01   4.479773e-03   2.720571e-01   2.243462e-03  
 9.026915e-08   8.756107e-01   3.655364e-03   2.708753e-01   1.830103e-03  
 9.126915e-08   8.853107e-01   2.961685e-03   2.698592e-01   1.482459e-03  
 9.226915e-08   8.950107e-01   2.384693e-03   2.689819e-01   1.193423e-03  
 9.326915e-08   9.047107e-01   1.909732e-03   2.682207e-01   9.555926e-04  
 9.426915e-08   9.144107e-01   1.522344e-03   2.675569e-01   7.616775e-04  
 9.526915e-08   9.241107e-01   1.208889e-03   2.669751e-01   6.048136e-04  
 9.626915e-08   9.338107e-01   9.569686e-04   2.664624e-01   4.787701e-04  
 9.726915e-08   9.435107e-01   7.556463e-04   2.660083e-01   3.780579e-04  
 9.826915e-08   9.532107e-01   5.955102e-04   2.656040e-01   2.979573e-04  
 9.926915e-08   9.629107e-01   4.686197e-04   2.652424e-01   2.344903e-04  
 1.000000e-07   9.700000e-01   3.930669e-04   2.650017e-01   1.967019e-04  
