
time (s)       getData("/nvtc getData("/SNMh getData("/SNMr getData("/SNMw

 0.000000e+00   0.000000e+00   4.799961e-01   4.799961e-01   1.154142e-01  
 2.068654e-11   9.929543e-05   4.799977e-01   4.799977e-01   1.151812e-01  
 3.646147e-11   1.750150e-04   4.799977e-01   4.799977e-01   1.149866e-01  
 5.826232e-11   2.796591e-04   4.799977e-01   4.799977e-01   1.147157e-01  
 1.018640e-10   4.889472e-04   4.799977e-01   4.799977e-01   1.141761e-01  
 1.890673e-10   9.075235e-04   4.799976e-01   4.799976e-01   1.131087e-01  
 3.634741e-10   1.744675e-03   4.799975e-01   4.799975e-01   1.110221e-01  
 6.186025e-10   2.969292e-03   4.799973e-01   4.799973e-01   1.080893e-01  
 9.078270e-10   4.357569e-03   4.799971e-01   4.799971e-01   1.049428e-01  
 1.215181e-09   5.832870e-03   4.799969e-01   4.799969e-01   1.018110e-01  
 1.534767e-09   7.366883e-03   4.799966e-01   4.799966e-01   9.878583e-02  
 1.861334e-09   8.934403e-03   4.799963e-01   4.799963e-01   9.593077e-02  
 2.194655e-09   1.053434e-02   4.799960e-01   4.799960e-01   9.324922e-02  
 2.537385e-09   1.217944e-02   4.799956e-01   4.799956e-01   9.071766e-02  
 2.892794e-09   1.388541e-02   4.799953e-01   4.799953e-01   8.831031e-02  
 3.264736e-09   1.567073e-02   4.799948e-01   4.799948e-01   8.600099e-02  
 3.657613e-09   1.755654e-02   4.799944e-01   4.799944e-01   8.376453e-02  
 4.076190e-09   1.956571e-02   4.799938e-01   4.799938e-01   8.157826e-02  
 4.525636e-09   2.172305e-02   4.799932e-01   4.799932e-01   7.942166e-02  
 5.011632e-09   2.405583e-02   4.799924e-01   4.799924e-01   7.727574e-02  
 5.540447e-09   2.659414e-02   4.799915e-01   4.799915e-01   7.512261e-02  
 6.119045e-09   2.937141e-02   4.799904e-01   4.799904e-01   7.294507e-02  
 6.755183e-09   3.242487e-02   4.799891e-01   4.799891e-01   7.072622e-02  
 7.457500e-09   3.579600e-02   4.799874e-01   4.799874e-01   6.844922e-02  
 8.235586e-09   3.953081e-02   4.799853e-01   4.799853e-01   6.609726e-02  
 9.099996e-09   4.367998e-02   4.799826e-01   4.799826e-01   6.365357e-02  
 1.006219e-08   4.829853e-02   4.799790e-01   4.799790e-01   6.110176e-02  
 1.106219e-08   5.309853e-02   4.799745e-01   4.799745e-01   5.860168e-02  
 1.206219e-08   5.789853e-02   4.799691e-01   4.799691e-01   5.622868e-02  
 1.306219e-08   6.269853e-02   4.799626e-01   4.799626e-01   5.396217e-02  
 1.406219e-08   6.749853e-02   4.799548e-01   4.799548e-01   5.178684e-02  
 1.506219e-08   7.229853e-02   4.799454e-01   4.799454e-01   4.969108e-02  
 1.606219e-08   7.709853e-02   4.799340e-01   4.799340e-01   4.766593e-02  
 1.706219e-08   8.189853e-02   4.799203e-01   4.799203e-01   4.570442e-02  
 1.806219e-08   8.669853e-02   4.799037e-01   4.799037e-01   4.380104e-02  
 1.906219e-08   9.149853e-02   4.798836e-01   4.798836e-01   4.195136e-02  
 2.006219e-08   9.629853e-02   4.798592e-01   4.798592e-01   4.015183e-02  
 2.106219e-08   1.010985e-01   4.798296e-01   4.798296e-01   3.839956e-02  
 2.206219e-08   1.058985e-01   4.797936e-01   4.797937e-01   3.669217e-02  
 2.306219e-08   1.106985e-01   4.797499e-01   4.797499e-01   3.502767e-02  
 2.406219e-08   1.154985e-01   4.796965e-01   4.796965e-01   3.340443e-02  
 2.506219e-08   1.202985e-01   4.796313e-01   4.796314e-01   3.182103e-02  
 2.606219e-08   1.250985e-01   4.795517e-01   4.795517e-01   3.027629e-02  
 2.706219e-08   1.298985e-01   4.794541e-01   4.794541e-01   2.876917e-02  
 2.806219e-08   1.346985e-01   4.793343e-01   4.793344e-01   2.729877e-02  
 2.906219e-08   1.394985e-01   4.791870e-01   4.791871e-01   2.586430e-02  
 3.006219e-08   1.442985e-01   4.790055e-01   4.790057e-01   2.446505e-02  
 3.106219e-08   1.490985e-01   4.787815e-01   4.787817e-01   2.310043e-02  
 3.206219e-08   1.538985e-01   4.785041e-01   4.785044e-01   2.176991e-02  
 3.306219e-08   1.586985e-01   4.781599e-01   4.781603e-01   2.047307e-02  
 3.406219e-08   1.634985e-01   4.777313e-01   4.777318e-01   1.920962e-02  
 3.506219e-08   1.682985e-01   4.771960e-01   4.771966e-01   1.797942e-02  
 3.606219e-08   1.730985e-01   4.765243e-01   4.765252e-01   1.678252e-02  
 3.706219e-08   1.778985e-01   4.756771e-01   4.756782e-01   1.561921e-02  
 3.806219e-08   1.826985e-01   4.746006e-01   4.746022e-01   1.449008e-02  
 3.906219e-08   1.874985e-01   4.732185e-01   4.732208e-01   1.339607e-02  
 4.006219e-08   1.922985e-01   4.714138e-01   4.714171e-01   1.233848e-02  
 4.106219e-08   1.970985e-01   4.689853e-01   4.689904e-01   1.131898e-02  
 4.206219e-08   2.018985e-01   4.655069e-01   4.655159e-01   1.033958e-02  
 4.255397e-08   2.042590e-01   4.631148e-01   4.631279e-01   9.873328e-03  
 4.298128e-08   2.063101e-01   4.603618e-01   4.603819e-01   9.476731e-03  
 4.321389e-08   2.074267e-01   4.584354e-01   4.584628e-01   9.264242e-03  
 4.341221e-08   2.083786e-01   4.564327e-01   4.564697e-01   9.085015e-03  
 4.359658e-08   2.092635e-01   4.541448e-01   4.541963e-01   8.919995e-03  
 4.373767e-08   2.099408e-01   4.520113e-01   4.520803e-01   8.794769e-03  
 4.384678e-08   2.104645e-01   4.500633e-01   4.501518e-01   8.698563e-03  
 4.394237e-08   2.109233e-01   4.480936e-01   4.482051e-01   8.614732e-03  
 4.405500e-08   2.114640e-01   4.453988e-01   4.455462e-01   8.516508e-03  
 4.415136e-08   2.119265e-01   4.427286e-01   4.429163e-01   8.432946e-03  
 4.434408e-08   2.128516e-01   4.362936e-01   4.365885e-01   8.267142e-03  
 4.451017e-08   2.136488e-01   4.296412e-01   4.300531e-01   8.125679e-03  
 4.459693e-08   2.140652e-01   4.258295e-01   4.263081e-01   8.052307e-03  
 4.471398e-08   2.146271e-01   4.204145e-01   4.209914e-01   7.953897e-03  
 4.481614e-08   2.151175e-01   4.154942e-01   4.161670e-01   7.868550e-03  
 4.490217e-08   2.155304e-01   4.112478e-01   4.120114e-01   7.797078e-03  
 4.507422e-08   2.163562e-01   4.025639e-01   4.035499e-01   7.655224e-03  
 4.521511e-08   2.170325e-01   3.953256e-01   3.965479e-01   7.540154e-03  
 4.533527e-08   2.176093e-01   3.890950e-01   3.905710e-01   7.442793e-03  
 4.547906e-08   2.182995e-01   3.815937e-01   3.834553e-01   7.327235e-03  
 4.567340e-08   2.192323e-01   3.714025e-01   3.739693e-01   7.172704e-03  
 4.588048e-08   2.202263e-01   3.604992e-01   3.641229e-01   7.010137e-03  
 4.608679e-08   2.212166e-01   3.496076e-01   3.546906e-01   6.850352e-03  
 4.630326e-08   2.222556e-01   3.381577e-01   3.453136e-01   6.685048e-03  
 4.653884e-08   2.233864e-01   3.256783e-01   3.358276e-01   6.507909e-03  
 4.679644e-08   2.246229e-01   3.120145e-01   3.263993e-01   6.317514e-03  
 4.705233e-08   2.258512e-01   2.984270e-01   3.180268e-01   6.131820e-03  
 4.730740e-08   2.270755e-01   2.848730e-01   3.106126e-01   5.950159e-03  
 4.756971e-08   2.283346e-01   2.709271e-01   3.038549e-01   5.766940e-03  
 4.784397e-08   2.296510e-01   2.563422e-01   2.975984e-01   5.579294e-03  
 4.813537e-08   2.310497e-01   2.408461e-01   2.917092e-01   5.384321e-03  
 4.845003e-08   2.325601e-01   2.241198e-01   2.860701e-01   5.178899e-03  
 4.879396e-08   2.342110e-01   2.058541e-01   2.805978e-01   4.960456e-03  
 4.917344e-08   2.360325e-01   1.857316e-01   2.752284e-01   4.726821e-03  
 4.959544e-08   2.380581e-01   1.634084e-01   2.699081e-01   4.476092e-03  
 5.006777e-08   2.403253e-01   1.385152e-01   2.645897e-01   4.206782e-03  
 5.059924e-08   2.428763e-01   1.106676e-01   2.592295e-01   3.917943e-03  
 5.120002e-08   2.457601e-01   7.956727e-02   2.537843e-01   3.609341e-03  
 5.157626e-08   2.475660e-01   6.064421e-02   2.506391e-01   3.425622e-03  
 5.178986e-08   2.485913e-01   5.045064e-02   2.489301e-01   3.324550e-03  
 5.197966e-08   2.495024e-01   4.214800e-02   2.474533e-01   3.236676e-03  
 5.212277e-08   2.501893e-01   3.666659e-02   2.463642e-01   3.171620e-03  
 5.223007e-08   2.507043e-01   3.312797e-02   2.455606e-01   3.123515e-03  
 5.234336e-08   2.512481e-01   2.995740e-02   2.447238e-01   3.073350e-03  
 5.248388e-08   2.519226e-01   2.676565e-02   2.437015e-01   3.012001e-03  
 5.260800e-08   2.525184e-01   2.451023e-02   2.428126e-01   2.958626e-03  
 5.271268e-08   2.530209e-01   2.292853e-02   2.420726e-01   2.914190e-03  
 5.281843e-08   2.535284e-01   2.156245e-02   2.413338e-01   2.869846e-03  
 5.294244e-08   2.541237e-01   2.019195e-02   2.404781e-01   2.818530e-03  
 5.308333e-08   2.547999e-01   1.886820e-02   2.395194e-01   2.761124e-03  
 5.323694e-08   2.555373e-01   1.763875e-02   2.384897e-01   2.699609e-03  
 5.341323e-08   2.563835e-01   1.643359e-02   2.373271e-01   2.630384e-03  
 5.362689e-08   2.574091e-01   1.519131e-02   2.359438e-01   2.548425e-03  
 5.388669e-08   2.586561e-01   1.391567e-02   2.342975e-01   2.451595e-03  
 5.420212e-08   2.601702e-01   1.261529e-02   2.323471e-01   2.338131e-03  
 5.459391e-08   2.620507e-01   1.126843e-02   2.299920e-01   2.203318e-03  
 5.509216e-08   2.644423e-01   9.856150e-03   2.270932e-01   2.041365e-03  
 5.573178e-08   2.675125e-01   8.385580e-03   2.235094e-01   1.848420e-03  
 5.655726e-08   2.714748e-01   6.880570e-03   2.190771e-01   1.622875e-03  
 5.755726e-08   2.762748e-01   5.468735e-03   2.139453e-01   1.382382e-03  
 5.855726e-08   2.810748e-01   4.377254e-03   2.090224e-01   1.174368e-03  
 5.955726e-08   2.858748e-01   3.520554e-03   2.042662e-01   9.953117e-04  
 6.055726e-08   2.906748e-01   2.841938e-03   1.996447e-01   8.418442e-04  
 6.155726e-08   2.954748e-01   2.301024e-03   1.951328e-01   7.108095e-04  
 6.255726e-08   3.002748e-01   1.867868e-03   1.907109e-01   5.993012e-04  
 6.355726e-08   3.050748e-01   1.519724e-03   1.863635e-01   5.046832e-04  
 6.455726e-08   3.098748e-01   1.239049e-03   1.820783e-01   4.245953e-04  
 6.555726e-08   3.146748e-01   1.012166e-03   1.778455e-01   3.569476e-04  
 6.655726e-08   3.194748e-01   8.283318e-04   1.736575e-01   2.999075e-04  
 6.755726e-08   3.242748e-01   6.790554e-04   1.695080e-01   2.518806e-04  
 6.855726e-08   3.290748e-01   5.575984e-04   1.653926e-01   2.114900e-04  
 6.955726e-08   3.338748e-01   4.585907e-04   1.613076e-01   1.775528e-04  
 7.055726e-08   3.386748e-01   3.777398e-04   1.572504e-01   1.490585e-04  
 7.155726e-08   3.434748e-01   3.116043e-04   1.532190e-01   1.251472e-04  
 7.255726e-08   3.482748e-01   2.574186e-04   1.492124e-01   1.050895e-04  
 7.355726e-08   3.530748e-01   2.129553e-04   1.452299e-01   8.826884e-05  
 7.455726e-08   3.578748e-01   1.764158e-04   1.412713e-01   7.416488e-05  
 7.555726e-08   3.626748e-01   1.463457e-04   1.373370e-01   6.233964e-05  
 7.655726e-08   3.674748e-01   1.215659e-04   1.334277e-01   5.242485e-05  
 7.755726e-08   3.722748e-01   1.011193e-04   1.295445e-01   4.411128e-05  
 7.855726e-08   3.770748e-01   8.422728e-05   1.256890e-01   3.713949e-05  
 7.955726e-08   3.818748e-01   7.025519e-05   1.218633e-01   3.129199e-05  
 8.055726e-08   3.866748e-01   5.868526e-05   1.180700e-01   2.638656e-05  
 8.155726e-08   3.914748e-01   4.909414e-05   1.143125e-01   2.227055e-05  
 8.255726e-08   3.962748e-01   4.113519e-05   1.105950e-01   1.881612e-05  
 8.355726e-08   4.010748e-01   3.452414e-05   1.069231e-01   1.591623e-05  
 8.455726e-08   4.058748e-01   2.902756e-05   1.033039e-01   1.348125e-05  
 8.555726e-08   4.106748e-01   2.445349e-05   9.974697e-02   1.143613e-05  
 8.655726e-08   4.154748e-01   2.064384e-05   9.626482e-02   9.718009e-06  
 8.755726e-08   4.202748e-01   1.746827e-05   9.287420e-02   8.274226e-06  
 8.855726e-08   4.250748e-01   1.481919e-05   8.959702e-02   7.060669e-06  
 8.955726e-08   4.298748e-01   1.260766e-05   8.646110e-02   6.040371e-06  
 9.055726e-08   4.346748e-01   1.076008e-05   8.349964e-02   5.182344e-06  
 9.155726e-08   4.394748e-01   9.215516e-06   8.074843e-02   4.460607e-06  
 9.255726e-08   4.442748e-01   7.923406e-06   7.824003e-02   3.853367e-06  
 9.355726e-08   4.490748e-01   6.841804e-06   7.599628e-02   3.342346e-06  
 9.455726e-08   4.538748e-01   5.935859e-06   7.402255e-02   2.912202e-06  
 9.555726e-08   4.586748e-01   5.176592e-06   7.230705e-02   2.550058e-06  
 9.655726e-08   4.634748e-01   4.539886e-06   7.082529e-02   2.245102e-06  
 9.755726e-08   4.682748e-01   4.005653e-06   6.954664e-02   1.988253e-06  
 9.855726e-08   4.730748e-01   3.557152e-06   6.843983e-02   1.771880e-06  
 9.927863e-08   4.765374e-01   3.278877e-06   6.773191e-02   1.637269e-06  
 1.000000e-07   4.800000e-01   3.033429e-06   6.708905e-02   1.518299e-06  
