
time (s)       getData("/nvtc getData("/SNMh getData("/SNMr getData("/SNMw

 0.000000e+00   0.000000e+00   6.999941e-01   6.999941e-01   2.165018e-01  
 1.730895e-11   1.211627e-04   6.999962e-01   6.999962e-01   2.163031e-01  
 3.020168e-11   2.114117e-04   6.999962e-01   6.999962e-01   2.161435e-01  
 4.888803e-11   3.422162e-04   6.999962e-01   6.999962e-01   2.159110e-01  
 8.626072e-11   6.038250e-04   6.999962e-01   6.999962e-01   2.154470e-01  
 1.610061e-10   1.127042e-03   6.999960e-01   6.999960e-01   2.145246e-01  
 3.104969e-10   2.173478e-03   6.999958e-01   6.999958e-01   2.127015e-01  
 6.094784e-10   4.266349e-03   6.999953e-01   6.999953e-01   2.091452e-01  
 1.041818e-09   7.292728e-03   6.999946e-01   6.999946e-01   2.042241e-01  
 1.528883e-09   1.070218e-02   6.999937e-01   6.999937e-01   1.990061e-01  
 2.045344e-09   1.431740e-02   6.999925e-01   6.999925e-01   1.938560e-01  
 2.583021e-09   1.808114e-02   6.999912e-01   6.999912e-01   1.889040e-01  
 3.135906e-09   2.195134e-02   6.999896e-01   6.999896e-01   1.842221e-01  
 3.706815e-09   2.594770e-02   6.999878e-01   6.999878e-01   1.797838e-01  
 4.303405e-09   3.012383e-02   6.999855e-01   6.999855e-01   1.755244e-01  
 4.934506e-09   3.454154e-02   6.999828e-01   6.999828e-01   1.713793e-01  
 5.610272e-09   3.927190e-02   6.999793e-01   6.999793e-01   1.672852e-01  
 6.342310e-09   4.439617e-02   6.999749e-01   6.999749e-01   1.631801e-01  
 7.143588e-09   5.000511e-02   6.999690e-01   6.999690e-01   1.590045e-01  
 8.028733e-09   5.620113e-02   6.999611e-01   6.999611e-01   1.546993e-01  
 9.014451e-09   6.310115e-02   6.999499e-01   6.999499e-01   1.502035e-01  
 1.001445e-08   7.010115e-02   6.999355e-01   6.999355e-01   1.458949e-01  
 1.101445e-08   7.710115e-02   6.999172e-01   6.999172e-01   1.417871e-01  
 1.201445e-08   8.410115e-02   6.998938e-01   6.998938e-01   1.378409e-01  
 1.301445e-08   9.110115e-02   6.998639e-01   6.998639e-01   1.340269e-01  
 1.401445e-08   9.810115e-02   6.998259e-01   6.998259e-01   1.303230e-01  
 1.501445e-08   1.051011e-01   6.997775e-01   6.997775e-01   1.267121e-01  
 1.601445e-08   1.121011e-01   6.997159e-01   6.997159e-01   1.231809e-01  
 1.701445e-08   1.191011e-01   6.996377e-01   6.996377e-01   1.197186e-01  
 1.801445e-08   1.261011e-01   6.995386e-01   6.995386e-01   1.163166e-01  
 1.901445e-08   1.331011e-01   6.994131e-01   6.994132e-01   1.129679e-01  
 2.001445e-08   1.401011e-01   6.992549e-01   6.992550e-01   1.096664e-01  
 2.101445e-08   1.471011e-01   6.990561e-01   6.990561e-01   1.064069e-01  
 2.201445e-08   1.541011e-01   6.988071e-01   6.988072e-01   1.031845e-01  
 2.301445e-08   1.611011e-01   6.984969e-01   6.984971e-01   9.999487e-02  
 2.401445e-08   1.681011e-01   6.981130e-01   6.981132e-01   9.683365e-02  
 2.501445e-08   1.751011e-01   6.976411e-01   6.976414e-01   9.369652e-02  
 2.601445e-08   1.821011e-01   6.970659e-01   6.970662e-01   9.057897e-02  
 2.701445e-08   1.891011e-01   6.963710e-01   6.963713e-01   8.747623e-02  
 2.801445e-08   1.961011e-01   6.955400e-01   6.955404e-01   8.438325e-02  
 2.901445e-08   2.031011e-01   6.945567e-01   6.945573e-01   8.129465e-02  
 3.001445e-08   2.101011e-01   6.934060e-01   6.934067e-01   7.820485e-02  
 3.101445e-08   2.171011e-01   6.920739e-01   6.920747e-01   7.510819e-02  
 3.201445e-08   2.241011e-01   6.905474e-01   6.905484e-01   7.199917e-02  
 3.301445e-08   2.311011e-01   6.888143e-01   6.888155e-01   6.887275e-02  
 3.401445e-08   2.381011e-01   6.868620e-01   6.868634e-01   6.572463e-02  
 3.501445e-08   2.451011e-01   6.846758e-01   6.846775e-01   6.255163e-02  
 3.601445e-08   2.521011e-01   6.822367e-01   6.822386e-01   5.935192e-02  
 3.701445e-08   2.591011e-01   6.795174e-01   6.795197e-01   5.612532e-02  
 3.801445e-08   2.661011e-01   6.764771e-01   6.764798e-01   5.287363e-02  
 3.901445e-08   2.731011e-01   6.730502e-01   6.730536e-01   4.960109e-02  
 4.001445e-08   2.801011e-01   6.691241e-01   6.691284e-01   4.631539e-02  
 4.101445e-08   2.871011e-01   6.644827e-01   6.644884e-01   4.302939e-02  
 4.201445e-08   2.941011e-01   6.586352e-01   6.586438e-01   3.976450e-02  
 4.250695e-08   2.975487e-01   6.549665e-01   6.549780e-01   3.817429e-02  
 4.293273e-08   3.005291e-01   6.510288e-01   6.510450e-01   3.681470e-02  
 4.318633e-08   3.023043e-01   6.481470e-01   6.481681e-01   3.601350e-02  
 4.340287e-08   3.038201e-01   6.452132e-01   6.452408e-01   3.533546e-02  
 4.359831e-08   3.051882e-01   6.420356e-01   6.420726e-01   3.472884e-02  
 4.375073e-08   3.062551e-01   6.390834e-01   6.391316e-01   3.425970e-02  
 4.387208e-08   3.071046e-01   6.363490e-01   6.364100e-01   3.388879e-02  
 4.398011e-08   3.078607e-01   6.335658e-01   6.336422e-01   3.356072e-02  
 4.408312e-08   3.085818e-01   6.305538e-01   6.306498e-01   3.324979e-02  
 4.418308e-08   3.092815e-01   6.272549e-01   6.273758e-01   3.294995e-02  
 4.438299e-08   3.106809e-01   6.194365e-01   6.196307e-01   3.235610e-02  
 4.455456e-08   3.118819e-01   6.114223e-01   6.117138e-01   3.185299e-02  
 4.466923e-08   3.126846e-01   6.054640e-01   6.058445e-01   3.152029e-02  
 4.476789e-08   3.133752e-01   6.000112e-01   6.004892e-01   3.123641e-02  
 4.489596e-08   3.142717e-01   5.925613e-01   5.932044e-01   3.087128e-02  
 4.500715e-08   3.150500e-01   5.858168e-01   5.866498e-01   3.055748e-02  
 4.510387e-08   3.157271e-01   5.797804e-01   5.808253e-01   3.028696e-02  
 4.529731e-08   3.170811e-01   5.673370e-01   5.689864e-01   2.975298e-02  
 4.545235e-08   3.181665e-01   5.570838e-01   5.594595e-01   2.933195e-02  
 4.557460e-08   3.190222e-01   5.488614e-01   5.520173e-01   2.900446e-02  
 4.570603e-08   3.199422e-01   5.399080e-01   5.441624e-01   2.865683e-02  
 4.586395e-08   3.210477e-01   5.290166e-01   5.350251e-01   2.824532e-02  
 4.602141e-08   3.221498e-01   5.180333e-01   5.263465e-01   2.784181e-02  
 4.617857e-08   3.232500e-01   5.069631e-01   5.181956e-01   2.744582e-02  
 4.636253e-08   3.245377e-01   4.938871e-01   5.093626e-01   2.699091e-02  
 4.658898e-08   3.261228e-01   4.776412e-01   4.995410e-01   2.644361e-02  
 4.682701e-08   3.277891e-01   4.604126e-01   4.903696e-01   2.588317e-02  
 4.707646e-08   3.295352e-01   4.422207e-01   4.818449e-01   2.531187e-02  
 4.732645e-08   3.312852e-01   4.238748e-01   4.742168e-01   2.475528e-02  
 4.758429e-08   3.330900e-01   4.048610e-01   4.671210e-01   2.419738e-02  
 4.787075e-08   3.350952e-01   3.836585e-01   4.599685e-01   2.359601e-02  
 4.820212e-08   3.374148e-01   3.590728e-01   4.524488e-01   2.292335e-02  
 4.858926e-08   3.401248e-01   3.303346e-01   4.444556e-01   2.216677e-02  
 4.904167e-08   3.432917e-01   2.968370e-01   4.359392e-01   2.131965e-02  
 4.956288e-08   3.469402e-01   2.585288e-01   4.269602e-01   2.038882e-02  
 5.016315e-08   3.511420e-01   2.150655e-01   4.174528e-01   1.937066e-02  
 5.085517e-08   3.559862e-01   1.663363e-01   4.073316e-01   1.826048e-02  
 5.152968e-08   3.607077e-01   1.211091e-01   3.981374e-01   1.723665e-02  
 5.189270e-08   3.632489e-01   9.836899e-02   3.934144e-01   1.670720e-02  
 5.221643e-08   3.655150e-01   7.998195e-02   3.893187e-01   1.624692e-02  
 5.235854e-08   3.665098e-01   7.287512e-02   3.875528e-01   1.604825e-02  
 5.247570e-08   3.673299e-01   6.762764e-02   3.861110e-01   1.588599e-02  
 5.264118e-08   3.684882e-01   6.128901e-02   3.840952e-01   1.565907e-02  
 5.281529e-08   3.697070e-01   5.596894e-02   3.819996e-01   1.542315e-02  
 5.298627e-08   3.709039e-01   5.188771e-02   3.799658e-01   1.519423e-02  
 5.312207e-08   3.718545e-01   4.927313e-02   3.783672e-01   1.501432e-02  
 5.324324e-08   3.727027e-01   4.729694e-02   3.769526e-01   1.485519e-02  
 5.338048e-08   3.736633e-01   4.537205e-02   3.753638e-01   1.467654e-02  
 5.354312e-08   3.748018e-01   4.342122e-02   3.734985e-01   1.446693e-02  
 5.372006e-08   3.760404e-01   4.160465e-02   3.714902e-01   1.424145e-02  
 5.391589e-08   3.774112e-01   3.986970e-02   3.692922e-01   1.399497e-02  
 5.415090e-08   3.790563e-01   3.806827e-02   3.666874e-01   1.370330e-02  
 5.444021e-08   3.810814e-01   3.615449e-02   3.635279e-01   1.335029e-02  
 5.479207e-08   3.835445e-01   3.414684e-02   3.597518e-01   1.292967e-02  
 5.522647e-08   3.865853e-01   3.200473e-02   3.551846e-01   1.242312e-02  
 5.578020e-08   3.904614e-01   2.964292e-02   3.495039e-01   1.179700e-02  
 5.649858e-08   3.954901e-01   2.699466e-02   3.423508e-01   1.101585e-02  
 5.743800e-08   4.020660e-01   2.400691e-02   3.333311e-01   1.004457e-02  
 5.843800e-08   4.090660e-01   2.123685e-02   3.241036e-01   9.069686e-03  
 5.943800e-08   4.160660e-01   1.877770e-02   3.152243e-01   8.152607e-03  
 6.043800e-08   4.230660e-01   1.656524e-02   3.066633e-01   7.291106e-03  
 6.143800e-08   4.300660e-01   1.456056e-02   2.983975e-01   6.483735e-03  
 6.243800e-08   4.370660e-01   1.273857e-02   2.904088e-01   5.729713e-03  
 6.343800e-08   4.440660e-01   1.108241e-02   2.826825e-01   5.028797e-03  
 6.443800e-08   4.510660e-01   9.580431e-03   2.752065e-01   4.381113e-03  
 6.543800e-08   4.580660e-01   8.224219e-03   2.679699e-01   3.786953e-03  
 6.643800e-08   4.650660e-01   7.007214e-03   2.609625e-01   3.246540e-03  
 6.743800e-08   4.720660e-01   5.923640e-03   2.541737e-01   2.759789e-03  
 6.843800e-08   4.790660e-01   4.967678e-03   2.475924e-01   2.326075e-03  
 6.943800e-08   4.860660e-01   4.132865e-03   2.412072e-01   1.944060e-03  
 7.043800e-08   4.930660e-01   3.411743e-03   2.350057e-01   1.611597e-03  
 7.143800e-08   5.000660e-01   2.795756e-03   2.289759e-01   1.325744e-03  
 7.243800e-08   5.070660e-01   2.275385e-03   2.231058e-01   1.082865e-03  
 7.343800e-08   5.140660e-01   1.840453e-03   2.173844e-01   8.788186e-04  
 7.443800e-08   5.210660e-01   1.480536e-03   2.118019e-01   7.091824e-04  
 7.543800e-08   5.280660e-01   1.185379e-03   2.063502e-01   5.694836e-04  
 7.643800e-08   5.350660e-01   9.452653e-04   2.010234e-01   4.553984e-04  
 7.743800e-08   5.420660e-01   7.512847e-04   1.958176e-01   3.629041e-04  
 7.843800e-08   5.490660e-01   5.954998e-04   1.907317e-01   2.883762e-04  
 7.943800e-08   5.560660e-01   4.710082e-04   1.857673e-01   2.286348e-04  
 8.043800e-08   5.630660e-01   3.719297e-04   1.809298e-01   1.809504e-04  
 8.143800e-08   5.700660e-01   2.933383e-04   1.762285e-01   1.430226e-04  
 8.243800e-08   5.770660e-01   2.311642e-04   1.716781e-01   1.129403e-04  
 8.343800e-08   5.840660e-01   1.820823e-04   1.672997e-01   8.913480e-05  
 8.443800e-08   5.910660e-01   1.434007e-04   1.631223e-01   7.033034e-05  
 8.543800e-08   5.980660e-01   1.129554e-04   1.591827e-01   5.549760e-05  
 8.643800e-08   6.050660e-01   8.901687e-05   1.555240e-01   4.381085e-05  
 8.743800e-08   6.120660e-01   7.020884e-05   1.521896e-01   3.461094e-05  
 8.843800e-08   6.190660e-01   5.544034e-05   1.492133e-01   2.737365e-05  
 8.943800e-08   6.260660e-01   4.384874e-05   1.466092e-01   2.168330e-05  
 9.043800e-08   6.330660e-01   3.475346e-05   1.443671e-01   1.721106e-05  
 9.143800e-08   6.400660e-01   2.761845e-05   1.424557e-01   1.369727e-05  
 9.243800e-08   6.470660e-01   2.202206e-05   1.408321e-01   1.093717e-05  
 9.343800e-08   6.540660e-01   1.763288e-05   1.394508e-01   8.769497e-06  
 9.443800e-08   6.610660e-01   1.419067e-05   1.382694e-01   7.067321e-06  
 9.543800e-08   6.680660e-01   1.149118e-05   1.372517e-01   5.730822e-06  
 9.643800e-08   6.750660e-01   9.374145e-06   1.363678e-01   4.681531e-06  
 9.743800e-08   6.820660e-01   7.713858e-06   1.355939e-01   3.857788e-06  
 9.843800e-08   6.890660e-01   6.411744e-06   1.349108e-01   3.211154e-06  
 9.921900e-08   6.945330e-01   5.593434e-06   1.344308e-01   2.804475e-06  
 1.000000e-07   7.000000e-01   4.916554e-06   1.339910e-01   2.467889e-06  
