
time (s)       getData("/nvtc getData("/SNMh getData("/SNMr getData("/SNMw

 0.000000e+00   0.000000e+00   1.019388e+00   1.019391e+00   4.277217e-01  
 1.455186e-11   1.484290e-04   1.019390e+00   1.019392e+00   4.276532e-01  
 2.512037e-11   2.562277e-04   1.019388e+00   1.019391e+00   4.275999e-01  
 4.120248e-11   4.202653e-04   1.019386e+00   1.019388e+00   4.275185e-01  
 7.336670e-11   7.483403e-04   1.019381e+00   1.019383e+00   4.273556e-01  
 1.376951e-10   1.404490e-03   1.019371e+00   1.019374e+00   4.270292e-01  
 2.262095e-10   2.307336e-03   1.019358e+00   1.019360e+00   4.265787e-01  
 3.201997e-10   3.266037e-03   1.019343e+00   1.019345e+00   4.260986e-01  
 4.196871e-10   4.280809e-03   1.019327e+00   1.019329e+00   4.255884e-01  
 5.222885e-10   5.327343e-03   1.019310e+00   1.019313e+00   4.250601e-01  
 6.161384e-10   6.284612e-03   1.019294e+00   1.019297e+00   4.245752e-01  
 7.269558e-10   7.414950e-03   1.019275e+00   1.019278e+00   4.240003e-01  
 8.280271e-10   8.445877e-03   1.019257e+00   1.019260e+00   4.234741e-01  
 9.267527e-10   9.452877e-03   1.019239e+00   1.019242e+00   4.229582e-01  
 1.047437e-09   1.068385e-02   1.019216e+00   1.019220e+00   4.223252e-01  
 1.157130e-09   1.180273e-02   1.019195e+00   1.019199e+00   4.217477e-01  
 1.264947e-09   1.290246e-02   1.019174e+00   1.019178e+00   4.211780e-01  
 1.377737e-09   1.405292e-02   1.019152e+00   1.019155e+00   4.205799e-01  
 1.493326e-09   1.523192e-02   1.019128e+00   1.019131e+00   4.199649e-01  
 1.611837e-09   1.644074e-02   1.019102e+00   1.019106e+00   4.193320e-01  
 1.734409e-09   1.769097e-02   1.019076e+00   1.019079e+00   4.186752e-01  
 1.861284e-09   1.898510e-02   1.019047e+00   1.019051e+00   4.179929e-01  
 1.992690e-09   2.032544e-02   1.019017e+00   1.019021e+00   4.172837e-01  
 2.129049e-09   2.171630e-02   1.018984e+00   1.018988e+00   4.165452e-01  
 2.270762e-09   2.316177e-02   1.018949e+00   1.018953e+00   4.157749e-01  
 2.418240e-09   2.466605e-02   1.018911e+00   1.018916e+00   4.149704e-01  
 2.571961e-09   2.623400e-02   1.018871e+00   1.018875e+00   4.141288e-01  
 2.732460e-09   2.787109e-02   1.018827e+00   1.018831e+00   4.132469e-01  
 2.900334e-09   2.958341e-02   1.018779e+00   1.018784e+00   4.123211e-01  
 3.076265e-09   3.137790e-02   1.018727e+00   1.018732e+00   4.113473e-01  
 3.261026e-09   3.326247e-02   1.018670e+00   1.018675e+00   4.103208e-01  
 3.455508e-09   3.524618e-02   1.018607e+00   1.018613e+00   4.092363e-01  
 3.660736e-09   3.733951e-02   1.018538e+00   1.018544e+00   4.080876e-01  
 3.877904e-09   3.955462e-02   1.018462e+00   1.018468e+00   4.068675e-01  
 4.108407e-09   4.190575e-02   1.018376e+00   1.018383e+00   4.055675e-01  
 4.353892e-09   4.440970e-02   1.018280e+00   1.018287e+00   4.041777e-01  
 4.616321e-09   4.708648e-02   1.018172e+00   1.018179e+00   4.026862e-01  
 4.898053e-09   4.996014e-02   1.018048e+00   1.018056e+00   4.010785e-01  
 5.201956e-09   5.305995e-02   1.017906e+00   1.017914e+00   3.993374e-01  
 5.531560e-09   5.642191e-02   1.017740e+00   1.017750e+00   3.974411e-01  
 5.891277e-09   6.009102e-02   1.017546e+00   1.017556e+00   3.953627e-01  
 6.286703e-09   6.412437e-02   1.017315e+00   1.017326e+00   3.930677e-01  
 6.725079e-09   6.859580e-02   1.017036e+00   1.017048e+00   3.905113e-01  
 7.215977e-09   7.360296e-02   1.016692e+00   1.016706e+00   3.876340e-01  
 7.772387e-09   7.927835e-02   1.016259e+00   1.016275e+00   3.843542e-01  
 8.412509e-09   8.580759e-02   1.015699e+00   1.015717e+00   3.805567e-01  
 9.162844e-09   9.346101e-02   1.014951e+00   1.014973e+00   3.760713e-01  
 1.006395e-08   1.026523e-01   1.013908e+00   1.013935e+00   3.706331e-01  
 1.106395e-08   1.128523e-01   1.012549e+00   1.012581e+00   3.645262e-01  
 1.206395e-08   1.230523e-01   1.010957e+00   1.010997e+00   3.583345e-01  
 1.306395e-08   1.332523e-01   1.009119e+00   1.009167e+00   3.520472e-01  
 1.406395e-08   1.434523e-01   1.007024e+00   1.007082e+00   3.456529e-01  
 1.506395e-08   1.536523e-01   1.004667e+00   1.004736e+00   3.391408e-01  
 1.606395e-08   1.638523e-01   1.002049e+00   1.002130e+00   3.325013e-01  
 1.706395e-08   1.740523e-01   9.991750e-01   9.992702e-01   3.257267e-01  
 1.806395e-08   1.842523e-01   9.960539e-01   9.961635e-01   3.188120e-01  
 1.906395e-08   1.944523e-01   9.926960e-01   9.928215e-01   3.117547e-01  
 2.006395e-08   2.046523e-01   9.891128e-01   9.892556e-01   3.045547e-01  
 2.106395e-08   2.148523e-01   9.853147e-01   9.854770e-01   2.972143e-01  
 2.206395e-08   2.250523e-01   9.813113e-01   9.814956e-01   2.897372e-01  
 2.306395e-08   2.352523e-01   9.771099e-01   9.773197e-01   2.821283e-01  
 2.406395e-08   2.454523e-01   9.727160e-01   9.729552e-01   2.743934e-01  
 2.506395e-08   2.556523e-01   9.681328e-01   9.684062e-01   2.665383e-01  
 2.606395e-08   2.658523e-01   9.633612e-01   9.636751e-01   2.585693e-01  
 2.706395e-08   2.760523e-01   9.584007e-01   9.587625e-01   2.504930e-01  
 2.806395e-08   2.862523e-01   9.532486e-01   9.536674e-01   2.423160e-01  
 2.906395e-08   2.964523e-01   9.479011e-01   9.483881e-01   2.340450e-01  
 3.006395e-08   3.066523e-01   9.423524e-01   9.429214e-01   2.256874e-01  
 3.106395e-08   3.168523e-01   9.365953e-01   9.372634e-01   2.172512e-01  
 3.206395e-08   3.270523e-01   9.306205e-01   9.314090e-01   2.087447e-01  
 3.306395e-08   3.372523e-01   9.244161e-01   9.253518e-01   2.001777e-01  
 3.406395e-08   3.474523e-01   9.179671e-01   9.190837e-01   1.915608e-01  
 3.506395e-08   3.576523e-01   9.112534e-01   9.125940e-01   1.829066e-01  
 3.606395e-08   3.678523e-01   9.042480e-01   9.058681e-01   1.742303e-01  
 3.706395e-08   3.780523e-01   8.969130e-01   8.988856e-01   1.655507e-01  
 3.806395e-08   3.882523e-01   8.891935e-01   8.916167e-01   1.568932e-01  
 3.906395e-08   3.984523e-01   8.810065e-01   8.840167e-01   1.482942e-01  
 4.006395e-08   4.086523e-01   8.722187e-01   8.760153e-01   1.398106e-01  
 4.106395e-08   4.188523e-01   8.626013e-01   8.674982e-01   1.315355e-01  
 4.206395e-08   4.290523e-01   8.517235e-01   8.582701e-01   1.236204e-01  
 4.306395e-08   4.392523e-01   8.386722e-01   8.479831e-01   1.162787e-01  
 4.403069e-08   4.491130e-01   8.218229e-01   8.364303e-01   1.099206e-01  
 4.480411e-08   4.570019e-01   8.018476e-01   8.254178e-01   1.054031e-01  
 4.536684e-08   4.627418e-01   7.804843e-01   8.160589e-01   1.024117e-01  
 4.578931e-08   4.670510e-01   7.594763e-01   8.082069e-01   1.003096e-01  
 4.614395e-08   4.706683e-01   7.386181e-01   8.011064e-01   9.862876e-02  
 4.647693e-08   4.740647e-01   7.167774e-01   7.940941e-01   9.711262e-02  
 4.681464e-08   4.775093e-01   6.928155e-01   7.867356e-01   9.562987e-02  
 4.717190e-08   4.811534e-01   6.658868e-01   7.787882e-01   9.411507e-02  
 4.756047e-08   4.851168e-01   6.351571e-01   7.700679e-01   9.252334e-02  
 4.799162e-08   4.895145e-01   5.997349e-01   7.604089e-01   9.081717e-02  
 4.848020e-08   4.944981e-01   5.584294e-01   7.495847e-01   8.895035e-02  
 4.905439e-08   5.003547e-01   5.090210e-01   7.371106e-01   8.683453e-02  
 4.979215e-08   5.078799e-01   4.454296e-01   7.215344e-01   8.422088e-02  
 5.060923e-08   5.162141e-01   3.767508e-01   7.048850e-01   8.144144e-02  
 5.141836e-08   5.244673e-01   3.127523e-01   6.889866e-01   7.878890e-02  
 5.206659e-08   5.310793e-01   2.660702e-01   6.766396e-01   7.672543e-02  
 5.259441e-08   5.364630e-01   2.324242e-01   6.668228e-01   7.508126e-02  
 5.304170e-08   5.410253e-01   2.081753e-01   6.586595e-01   7.371112e-02  
 5.341917e-08   5.448756e-01   1.915504e-01   6.518757e-01   7.257032e-02  
 5.374767e-08   5.482262e-01   1.800769e-01   6.460470e-01   7.158852e-02  
 5.405613e-08   5.513726e-01   1.715074e-01   6.406350e-01   7.067549e-02  
 5.437001e-08   5.545741e-01   1.644909e-01   6.351867e-01   6.975497e-02  
 5.470865e-08   5.580282e-01   1.583194e-01   6.293728e-01   6.877113e-02  
 5.509042e-08   5.619222e-01   1.525702e-01   6.228953e-01   6.767316e-02  
 5.553539e-08   5.664610e-01   1.469570e-01   6.154444e-01   6.640778e-02  
 5.606646e-08   5.718779e-01   1.412661e-01   6.066856e-01   6.491707e-02  
 5.671134e-08   5.784556e-01   1.353092e-01   5.962359e-01   6.313412e-02  
 5.750462e-08   5.865471e-01   1.288978e-01   5.836465e-01   6.097995e-02  
 5.848936e-08   5.965914e-01   1.218339e-01   5.684015e-01   5.836294e-02  
 5.948936e-08   6.067914e-01   1.153297e-01   5.533287e-01   5.576694e-02  
 6.048936e-08   6.169914e-01   1.092922e-01   5.386452e-01   5.323040e-02  
 6.148936e-08   6.271914e-01   1.036058e-01   5.243338e-01   5.075131e-02  
 6.248936e-08   6.373914e-01   9.819933e-02   5.103815e-01   4.832813e-02  
 6.348936e-08   6.475914e-01   9.302648e-02   4.967792e-01   4.595966e-02  
 6.448936e-08   6.577914e-01   8.805548e-02   4.835207e-01   4.364501e-02  
 6.548936e-08   6.679914e-01   8.326382e-02   4.706027e-01   4.138350e-02  
 6.648936e-08   6.781914e-01   7.863508e-02   4.580248e-01   3.917461e-02  
 6.748936e-08   6.883914e-01   7.415698e-02   4.457889e-01   3.701797e-02  
 6.848936e-08   6.985914e-01   6.982014e-02   4.338997e-01   3.491329e-02  
 6.948936e-08   7.087914e-01   6.561726e-02   4.223649e-01   3.286038e-02  
 7.048936e-08   7.189914e-01   6.154261e-02   4.111953e-01   3.085911e-02  
 7.148936e-08   7.291914e-01   5.759165e-02   4.004063e-01   2.890944e-02  
 7.248936e-08   7.393914e-01   5.376081e-02   3.900182e-01   2.701139e-02  
 7.348936e-08   7.495914e-01   5.004737e-02   3.800587e-01   2.516511e-02  
 7.448936e-08   7.597914e-01   4.644940e-02   3.705642e-01   2.337089e-02  
 7.548936e-08   7.699914e-01   4.296573e-02   3.615820e-01   2.162922e-02  
 7.648936e-08   7.801914e-01   3.959606e-02   3.531710e-01   1.994086e-02  
 7.748936e-08   7.903914e-01   3.634100e-02   3.453980e-01   1.830691e-02  
 7.848936e-08   8.005914e-01   3.320221e-02   3.383287e-01   1.672888e-02  
 7.948936e-08   8.107914e-01   3.018250e-02   3.320104e-01   1.520879e-02  
 8.048936e-08   8.209914e-01   2.728590e-02   3.264552e-01   1.374919e-02  
 8.148936e-08   8.311914e-01   2.451774e-02   3.216324e-01   1.235321e-02  
 8.248936e-08   8.413914e-01   2.188454e-02   3.174769e-01   1.102455e-02  
 8.348936e-08   8.515914e-01   1.939385e-02   3.139061e-01   9.767365e-03  
 8.448936e-08   8.617914e-01   1.705388e-02   3.108366e-01   8.586076e-03  
 8.548936e-08   8.719914e-01   1.487299e-02   3.081932e-01   7.485141e-03  
 8.648936e-08   8.821914e-01   1.285900e-02   3.059127e-01   6.468672e-03  
 8.748936e-08   8.923914e-01   1.101835e-02   3.039430e-01   5.540031e-03  
 8.848936e-08   9.025914e-01   9.355256e-03   3.022412e-01   4.701398e-03  
 8.948936e-08   9.127914e-01   7.870981e-03   3.007714e-01   3.953400e-03  
 9.048936e-08   9.229914e-01   6.563274e-03   2.995027e-01   3.294845e-03  
 9.148936e-08   9.331914e-01   5.426194e-03   2.984083e-01   2.722645e-03  
 9.248936e-08   9.433914e-01   4.450304e-03   2.974641e-01   2.231933e-03  
 9.348936e-08   9.535914e-01   3.623244e-03   2.966491e-01   1.816370e-03  
 9.448936e-08   9.637914e-01   2.930571e-03   2.959446e-01   1.468576e-03  
 9.546257e-08   9.737183e-01   2.370663e-03   2.953494e-01   1.187624e-03  
 9.625797e-08   9.818312e-01   1.986463e-03   2.949199e-01   9.949386e-04  
 9.688673e-08   9.882446e-01   1.723952e-03   2.946122e-01   8.633317e-04  
 9.739654e-08   9.934447e-01   1.535055e-03   2.943811e-01   7.686555e-04  
 9.781681e-08   9.977315e-01   1.394039e-03   2.942021e-01   6.979917e-04  
 9.817095e-08   1.001343e+00   1.284749e-03   2.940587e-01   6.432344e-04  
 9.847722e-08   1.004467e+00   1.196805e-03   2.939399e-01   5.991775e-04  
 9.874769e-08   1.007226e+00   1.123912e-03   2.938388e-01   5.626640e-04  
 9.899057e-08   1.009703e+00   1.062074e-03   2.937509e-01   5.316911e-04  
 9.921168e-08   1.011959e+00   1.008611e-03   2.936732e-01   5.049145e-04  
 9.941521e-08   1.014035e+00   9.616845e-04   2.936035e-01   4.814134e-04  
 9.960416e-08   1.015962e+00   9.199977e-04   2.935404e-01   4.605376e-04  
 9.978080e-08   1.017764e+00   8.826014e-04   2.934827e-01   4.418113e-04  
 9.989040e-08   1.018882e+00   8.601393e-04   2.934476e-01   4.305638e-04  
 1.000000e-07   1.020000e+00   8.382288e-04   2.934129e-01   4.195928e-04  
