
time (s)       getData("/nvtc getData("/SNMh getData("/SNMr getData("/SNMw

 0.000000e+00   0.000000e+00   9.199630e-01   9.199630e-01   3.394510e-01  
 1.525265e-11   1.403244e-04   9.199656e-01   9.199656e-01   3.393127e-01  
 2.641024e-11   2.429742e-04   9.199656e-01   9.199656e-01   3.392021e-01  
 4.316216e-11   3.970919e-04   9.199654e-01   9.199654e-01   3.390353e-01  
 7.666600e-11   7.053272e-04   9.199650e-01   9.199650e-01   3.387021e-01  
 1.436736e-10   1.321797e-03   9.199643e-01   9.199643e-01   3.380377e-01  
 2.776890e-10   2.554738e-03   9.199628e-01   9.199628e-01   3.367167e-01  
 5.457197e-10   5.020621e-03   9.199597e-01   9.199597e-01   3.341066e-01  
 1.081781e-09   9.952386e-03   9.199526e-01   9.199526e-01   3.290173e-01  
 1.872176e-09   1.722402e-02   9.199401e-01   9.199401e-01   3.218387e-01  
 2.774170e-09   2.552236e-02   9.199220e-01   9.199220e-01   3.141177e-01  
 3.747681e-09   3.447867e-02   9.198965e-01   9.198965e-01   3.063186e-01  
 4.747681e-09   4.367867e-02   9.198619e-01   9.198619e-01   2.988279e-01  
 5.747681e-09   5.287867e-02   9.198162e-01   9.198163e-01   2.917947e-01  
 6.747681e-09   6.207867e-02   9.197559e-01   9.197560e-01   2.851481e-01  
 7.747681e-09   7.127867e-02   9.196764e-01   9.196765e-01   2.788231e-01  
 8.747681e-09   8.047867e-02   9.195718e-01   9.195719e-01   2.727634e-01  
 9.747681e-09   8.967867e-02   9.194346e-01   9.194347e-01   2.669215e-01  
 1.074768e-08   9.887867e-02   9.192551e-01   9.192553e-01   2.612581e-01  
 1.174768e-08   1.080786e-01   9.190214e-01   9.190217e-01   2.557401e-01  
 1.274768e-08   1.172786e-01   9.187190e-01   9.187194e-01   2.503397e-01  
 1.374768e-08   1.264786e-01   9.183303e-01   9.183308e-01   2.450333e-01  
 1.474768e-08   1.356786e-01   9.178352e-01   9.178359e-01   2.397997e-01  
 1.574768e-08   1.448786e-01   9.172112e-01   9.172120e-01   2.346198e-01  
 1.674768e-08   1.540786e-01   9.164344e-01   9.164354e-01   2.294757e-01  
 1.774768e-08   1.632786e-01   9.154812e-01   9.154826e-01   2.243498e-01  
 1.874768e-08   1.724786e-01   9.143301e-01   9.143318e-01   2.192250e-01  
 1.974768e-08   1.816786e-01   9.129634e-01   9.129655e-01   2.140842e-01  
 2.074768e-08   1.908786e-01   9.113692e-01   9.113718e-01   2.089107e-01  
 2.174768e-08   2.000786e-01   9.095417e-01   9.095449e-01   2.036884e-01  
 2.274768e-08   2.092786e-01   9.074816e-01   9.074855e-01   1.984029e-01  
 2.374768e-08   2.184786e-01   9.051944e-01   9.051990e-01   1.930420e-01  
 2.474768e-08   2.276786e-01   9.026888e-01   9.026942e-01   1.875960e-01  
 2.574768e-08   2.368786e-01   8.999748e-01   8.999810e-01   1.820588e-01  
 2.674768e-08   2.460786e-01   8.970614e-01   8.970685e-01   1.764269e-01  
 2.774768e-08   2.552786e-01   8.939556e-01   8.939638e-01   1.706998e-01  
 2.874768e-08   2.644786e-01   8.906616e-01   8.906709e-01   1.648789e-01  
 2.974768e-08   2.736786e-01   8.871799e-01   8.871906e-01   1.589674e-01  
 3.074768e-08   2.828786e-01   8.835077e-01   8.835200e-01   1.529692e-01  
 3.174768e-08   2.920786e-01   8.796387e-01   8.796530e-01   1.468895e-01  
 3.274768e-08   3.012786e-01   8.755630e-01   8.755797e-01   1.407337e-01  
 3.374768e-08   3.104786e-01   8.712672e-01   8.712868e-01   1.345079e-01  
 3.474768e-08   3.196786e-01   8.667333e-01   8.667565e-01   1.282192e-01  
 3.574768e-08   3.288786e-01   8.619374e-01   8.619652e-01   1.218755e-01  
 3.674768e-08   3.380786e-01   8.568465e-01   8.568804e-01   1.154862e-01  
 3.774768e-08   3.472786e-01   8.514141e-01   8.514559e-01   1.090629e-01  
 3.874768e-08   3.564786e-01   8.455693e-01   8.456221e-01   1.026210e-01  
 3.974768e-08   3.656786e-01   8.391969e-01   8.392657e-01   9.618221e-02  
 4.074768e-08   3.748786e-01   8.320921e-01   8.321859e-01   8.978039e-02  
 4.174768e-08   3.840786e-01   8.238423e-01   8.239805e-01   8.347313e-02  
 4.262778e-08   3.921756e-01   8.148624e-01   8.150839e-01   7.807939e-02  
 4.303198e-08   3.958942e-01   8.097714e-01   8.100669e-01   7.568168e-02  
 4.337744e-08   3.990725e-01   8.045932e-01   8.049952e-01   7.368582e-02  
 4.369085e-08   4.019558e-01   7.989059e-01   7.994735e-01   7.192568e-02  
 4.393086e-08   4.041639e-01   7.936204e-01   7.944012e-01   7.061449e-02  
 4.410915e-08   4.058041e-01   7.889802e-01   7.900053e-01   6.966287e-02  
 4.426203e-08   4.072107e-01   7.843902e-01   7.857166e-01   6.886280e-02  
 4.441244e-08   4.085945e-01   7.792202e-01   7.809645e-01   6.809064e-02  
 4.456478e-08   4.099960e-01   7.732316e-01   7.755723e-01   6.732405e-02  
 4.473434e-08   4.115559e-01   7.656007e-01   7.688893e-01   6.648945e-02  
 4.494216e-08   4.134678e-01   7.548398e-01   7.598500e-01   6.549370e-02  
 4.512006e-08   4.151045e-01   7.444728e-01   7.515978e-01   6.466509e-02  
 4.525007e-08   4.163006e-01   7.362990e-01   7.454226e-01   6.407337e-02  
 4.536240e-08   4.173340e-01   7.288786e-01   7.400747e-01   6.357137e-02  
 4.548635e-08   4.184744e-01   7.203489e-01   7.342294e-01   6.302727e-02  
 4.562418e-08   4.197425e-01   7.104932e-01   7.278664e-01   6.243418e-02  
 4.576526e-08   4.210404e-01   7.000505e-01   7.215575e-01   6.183984e-02  
 4.592038e-08   4.224675e-01   6.882045e-01   7.148973e-01   6.120072e-02  
 4.611471e-08   4.242554e-01   6.728979e-01   7.069849e-01   6.042060e-02  
 4.637830e-08   4.266803e-01   6.514298e-01   6.969946e-01   5.939710e-02  
 4.671039e-08   4.297356e-01   6.234253e-01   6.854851e-01   5.816031e-02  
 4.708266e-08   4.331605e-01   5.910244e-01   6.737524e-01   5.683721e-02  
 4.750098e-08   4.370090e-01   5.536564e-01   6.617154e-01   5.542113e-02  
 4.797905e-08   4.414072e-01   5.101079e-01   6.490904e-01   5.388233e-02  
 4.852587e-08   4.464380e-01   4.597352e-01   6.357688e-01   5.221092e-02  
 4.915245e-08   4.522025e-01   4.020494e-01   6.216192e-01   5.039334e-02  
 4.979832e-08   4.581445e-01   3.435552e-01   6.079977e-01   4.861083e-02  
 5.039489e-08   4.636330e-01   2.912792e-01   5.961102e-01   4.703359e-02  
 5.094776e-08   4.687194e-01   2.451137e-01   5.855876e-01   4.562311e-02  
 5.147471e-08   4.735673e-01   2.039149e-01   5.759377e-01   4.431925e-02  
 5.194792e-08   4.779209e-01   1.700952e-01   5.675494e-01   4.317872e-02  
 5.234035e-08   4.815312e-01   1.453603e-01   5.607724e-01   4.225297e-02  
 5.262468e-08   4.841470e-01   1.301962e-01   5.559556e-01   4.159286e-02  
 5.282920e-08   4.860286e-01   1.211245e-01   5.525367e-01   4.112335e-02  
 5.302188e-08   4.878013e-01   1.140512e-01   5.493491e-01   4.068491e-02  
 5.324398e-08   4.898446e-01   1.074972e-01   5.457139e-01   4.018414e-02  
 5.343478e-08   4.915999e-01   1.029744e-01   5.426229e-01   3.975775e-02  
 5.359536e-08   4.930773e-01   9.977951e-02   5.400436e-01   3.940155e-02  
 5.375935e-08   4.945860e-01   9.696042e-02   5.374297e-01   3.904024e-02  
 5.395079e-08   4.963472e-01   9.410717e-02   5.344038e-01   3.862156e-02  
 5.416646e-08   4.983314e-01   9.132099e-02   5.310262e-01   3.815376e-02  
 5.440189e-08   5.004974e-01   8.866586e-02   5.273760e-01   3.764770e-02  
 5.467419e-08   5.030026e-01   8.596562e-02   5.232004e-01   3.706822e-02  
 5.500563e-08   5.060518e-01   8.306929e-02   5.181823e-01   3.637112e-02  
 5.540989e-08   5.097710e-01   7.995049e-02   5.121524e-01   3.553268e-02  
 5.590439e-08   5.143204e-01   7.656827e-02   5.049050e-01   3.452413e-02  
 5.652509e-08   5.200308e-01   7.278671e-02   4.959962e-01   3.328375e-02  
 5.732300e-08   5.273716e-01   6.844030e-02   4.848294e-01   3.172917e-02  
 5.832300e-08   5.365716e-01   6.354622e-02   4.712514e-01   2.984123e-02  
 5.932300e-08   5.457716e-01   5.908407e-02   4.580997e-01   2.801728e-02  
 6.032300e-08   5.549716e-01   5.494236e-02   4.453423e-01   2.625456e-02  
 6.132300e-08   5.641716e-01   5.105635e-02   4.329540e-01   2.455082e-02  
 6.232300e-08   5.733716e-01   4.738483e-02   4.209149e-01   2.290419e-02  
 6.332300e-08   5.825716e-01   4.389981e-02   4.092093e-01   2.131306e-02  
 6.432300e-08   5.917716e-01   4.058135e-02   3.978249e-01   1.977606e-02  
 6.532300e-08   6.009716e-01   3.741469e-02   3.867524e-01   1.829198e-02  
 6.632300e-08   6.101716e-01   3.438865e-02   3.759847e-01   1.685981e-02  
 6.732300e-08   6.193716e-01   3.149462e-02   3.655173e-01   1.547872e-02  
 6.832300e-08   6.285716e-01   2.872608e-02   3.553478e-01   1.414818e-02  
 6.932300e-08   6.377716e-01   2.607835e-02   3.454760e-01   1.286800e-02  
 7.032300e-08   6.469716e-01   2.354851e-02   3.359045e-01   1.163846e-02  
 7.132300e-08   6.561716e-01   2.113543e-02   3.266383e-01   1.046042e-02  
 7.232300e-08   6.653716e-01   1.883987e-02   3.176854e-01   9.335466e-03  
 7.332300e-08   6.745716e-01   1.666455e-02   3.090568e-01   8.265936e-03  
 7.432300e-08   6.837716e-01   1.461406e-02   3.007661e-01   7.254990e-03  
 7.532300e-08   6.929716e-01   1.269466e-02   2.928301e-01   6.306486e-03  
 7.632300e-08   7.021716e-01   1.091373e-02   2.852681e-01   5.424747e-03  
 7.732300e-08   7.113716e-01   9.278990e-03   2.781023e-01   4.614169e-03  
 7.832300e-08   7.205716e-01   7.797416e-03   2.713576e-01   3.878690e-03  
 7.932300e-08   7.297716e-01   6.474023e-03   2.650623e-01   3.221175e-03  
 8.032300e-08   7.389716e-01   5.310686e-03   2.592484e-01   2.642842e-03  
 8.132300e-08   7.481716e-01   4.305283e-03   2.539496e-01   2.142831e-03  
 8.232300e-08   7.573716e-01   3.451361e-03   2.491968e-01   1.718055e-03  
 8.332300e-08   7.665716e-01   2.738433e-03   2.450098e-01   1.363367e-03  
 8.432300e-08   7.757716e-01   2.152847e-03   2.413866e-01   1.072005e-03  
 8.532300e-08   7.849716e-01   1.678999e-03   2.382987e-01   8.362202e-04  
 8.632300e-08   7.941716e-01   1.300630e-03   2.356942e-01   6.479250e-04  
 8.732300e-08   8.033716e-01   1.001943e-03   2.335077e-01   4.992622e-04  
 8.832300e-08   8.125716e-01   7.684161e-04   2.316712e-01   3.830096e-04  
 8.932300e-08   8.217716e-01   5.872722e-04   2.301221e-01   2.928139e-04  
 9.032300e-08   8.309716e-01   4.476551e-04   2.288070e-01   2.232773e-04  
 9.132300e-08   8.401716e-01   3.405892e-04   2.276816e-01   1.699375e-04  
 9.232300e-08   8.493716e-01   2.588111e-04   2.267109e-01   1.291835e-04  
 9.332300e-08   8.585716e-01   1.965409e-04   2.258668e-01   9.814135e-05  
 9.432300e-08   8.677716e-01   1.492379e-04   2.251273e-01   7.455279e-05  
 9.532300e-08   8.769716e-01   1.133701e-04   2.244749e-01   5.666081e-05  
 9.632300e-08   8.861716e-01   8.621087e-05   2.238956e-01   4.310863e-05  
 9.732300e-08   8.953716e-01   6.566753e-05   2.233783e-01   3.285454e-05  
 9.832300e-08   9.045716e-01   5.014094e-05   2.229139e-01   2.510223e-05  
 9.932300e-08   9.137716e-01   3.841316e-05   2.224952e-01   1.924497e-05  
 1.000000e-07   9.200000e-01   3.215144e-05   2.222346e-01   1.611694e-05  
