
time (s)       getData("/nvtc getData("/SNMh getData("/SNMr getData("/SNMw

 0.000000e+00   0.000000e+00   9.399169e-01   9.399169e-01   3.596473e-01  
 1.510333e-11   1.419713e-04   9.399195e-01   9.399195e-01   3.595235e-01  
 2.613533e-11   2.456721e-04   9.399193e-01   9.399193e-01   3.594269e-01  
 4.274506e-11   4.018035e-04   9.399189e-01   9.399190e-01   3.592811e-01  
 7.596451e-11   7.140664e-04   9.399182e-01   9.399182e-01   3.589896e-01  
 1.424034e-10   1.338592e-03   9.399166e-01   9.399167e-01   3.584080e-01  
 2.752812e-10   2.587643e-03   9.399135e-01   9.399135e-01   3.572500e-01  
 5.410369e-10   5.085746e-03   9.399068e-01   9.399069e-01   3.549547e-01  
 1.072548e-09   1.008195e-02   9.398920e-01   9.398921e-01   3.504499e-01  
 1.992555e-09   1.873002e-02   9.398609e-01   9.398609e-01   3.429280e-01  
 2.992555e-09   2.813002e-02   9.398170e-01   9.398171e-01   3.351457e-01  
 3.992555e-09   3.753002e-02   9.397598e-01   9.397600e-01   3.277511e-01  
 4.992555e-09   4.693002e-02   9.396853e-01   9.396855e-01   3.207076e-01  
 5.992555e-09   5.633002e-02   9.395882e-01   9.395885e-01   3.139727e-01  
 6.992555e-09   6.573002e-02   9.394622e-01   9.394625e-01   3.075031e-01  
 7.992555e-09   7.513002e-02   9.392989e-01   9.392993e-01   3.012582e-01  
 8.992555e-09   8.453002e-02   9.390883e-01   9.390888e-01   2.952013e-01  
 9.992555e-09   9.393002e-02   9.388177e-01   9.388184e-01   2.892999e-01  
 1.099255e-08   1.033300e-01   9.384720e-01   9.384729e-01   2.835253e-01  
 1.199255e-08   1.127300e-01   9.380335e-01   9.380347e-01   2.778520e-01  
 1.299255e-08   1.221300e-01   9.374819e-01   9.374835e-01   2.722573e-01  
 1.399255e-08   1.315300e-01   9.367950e-01   9.367970e-01   2.667199e-01  
 1.499255e-08   1.409300e-01   9.359497e-01   9.359522e-01   2.612200e-01  
 1.599255e-08   1.503300e-01   9.349229e-01   9.349262e-01   2.557384e-01  
 1.699255e-08   1.597300e-01   9.336941e-01   9.336982e-01   2.502564e-01  
 1.799255e-08   1.691300e-01   9.322462e-01   9.322513e-01   2.447558e-01  
 1.899255e-08   1.785300e-01   9.305674e-01   9.305736e-01   2.392189e-01  
 1.999255e-08   1.879300e-01   9.286519e-01   9.286595e-01   2.336292e-01  
 2.099255e-08   1.973300e-01   9.264997e-01   9.265087e-01   2.279718e-01  
 2.199255e-08   2.067300e-01   9.241154e-01   9.241261e-01   2.222344e-01  
 2.299255e-08   2.161300e-01   9.215075e-01   9.215199e-01   2.164073e-01  
 2.399255e-08   2.255300e-01   9.186855e-01   9.186999e-01   2.104841e-01  
 2.499255e-08   2.349300e-01   9.156592e-01   9.156757e-01   2.044612e-01  
 2.599255e-08   2.443300e-01   9.124369e-01   9.124558e-01   1.983378e-01  
 2.699255e-08   2.537300e-01   9.090245e-01   9.090460e-01   1.921153e-01  
 2.799255e-08   2.631300e-01   9.054251e-01   9.054496e-01   1.857964e-01  
 2.899255e-08   2.725300e-01   9.016388e-01   9.016670e-01   1.793852e-01  
 2.999255e-08   2.819300e-01   8.976629e-01   8.976954e-01   1.728861e-01  
 3.099255e-08   2.913300e-01   8.934919e-01   8.935295e-01   1.663046e-01  
 3.199255e-08   3.007300e-01   8.891173e-01   8.891612e-01   1.596463e-01  
 3.299255e-08   3.101300e-01   8.845278e-01   8.845793e-01   1.529175e-01  
 3.399255e-08   3.195300e-01   8.797084e-01   8.797696e-01   1.461253e-01  
 3.499255e-08   3.289300e-01   8.746399e-01   8.747130e-01   1.392777e-01  
 3.599255e-08   3.383300e-01   8.692961e-01   8.693844e-01   1.323840e-01  
 3.699255e-08   3.477300e-01   8.636410e-01   8.637493e-01   1.254556e-01  
 3.799255e-08   3.571300e-01   8.576226e-01   8.577575e-01   1.185067e-01  
 3.899255e-08   3.665300e-01   8.511610e-01   8.513327e-01   1.115570e-01  
 3.999255e-08   3.759300e-01   8.441246e-01   8.443499e-01   1.046355e-01  
 4.099255e-08   3.853300e-01   8.362769e-01   8.365867e-01   9.778925e-02  
 4.199255e-08   3.947300e-01   8.271385e-01   8.275997e-01   9.109895e-02  
 4.285237e-08   4.028123e-01   8.173893e-01   8.181255e-01   8.557432e-02  
 4.325208e-08   4.065696e-01   8.117937e-01   8.127722e-01   8.311380e-02  
 4.359340e-08   4.097780e-01   8.061144e-01   8.074326e-01   8.108165e-02  
 4.390860e-08   4.127409e-01   7.997851e-01   8.016221e-01   7.926892e-02  
 4.415889e-08   4.150935e-01   7.937002e-01   7.962042e-01   7.787699e-02  
 4.435156e-08   4.169047e-01   7.881623e-01   7.914339e-01   7.683546e-02  
 4.452544e-08   4.185392e-01   7.823780e-01   7.866228e-01   7.591855e-02  
 4.471174e-08   4.202904e-01   7.752173e-01   7.809115e-01   7.496066e-02  
 4.493163e-08   4.223573e-01   7.653539e-01   7.734743e-01   7.386277e-02  
 4.516642e-08   4.245644e-01   7.531035e-01   7.648838e-01   7.272910e-02  
 4.536461e-08   4.264273e-01   7.414784e-01   7.573353e-01   7.180259e-02  
 4.551715e-08   4.278612e-01   7.318246e-01   7.514730e-01   7.110789e-02  
 4.565849e-08   4.291898e-01   7.224008e-01   7.460747e-01   7.047809e-02  
 4.582188e-08   4.307257e-01   7.110045e-01   7.399354e-01   6.976614e-02  
 4.600555e-08   4.324521e-01   6.976355e-01   7.332178e-01   6.898568e-02  
 4.620068e-08   4.342864e-01   6.828753e-01   7.263310e-01   6.817840e-02  
 4.642733e-08   4.364169e-01   6.651182e-01   7.186721e-01   6.726759e-02  
 4.672148e-08   4.391820e-01   6.412462e-01   7.092588e-01   6.612544e-02  
 4.708720e-08   4.426197e-01   6.105115e-01   6.983036e-01   6.476277e-02  
 4.750551e-08   4.465518e-01   5.742512e-01   6.866336e-01   6.327336e-02  
 4.798640e-08   4.510721e-01   5.315417e-01   6.741393e-01   6.164048e-02  
 4.855723e-08   4.564380e-01   4.800433e-01   6.603225e-01   5.979602e-02  
 4.918464e-08   4.623356e-01   4.232692e-01   6.461369e-01   5.786739e-02  
 4.978569e-08   4.679854e-01   3.695556e-01   6.333315e-01   5.610100e-02  
 5.034944e-08   4.732847e-01   3.205286e-01   6.218941e-01   5.450571e-02  
 5.089514e-08   4.784143e-01   2.750125e-01   6.112715e-01   5.301083e-02  
 5.142471e-08   4.833923e-01   2.333611e-01   6.013289e-01   5.160120e-02  
 5.191637e-08   4.880139e-01   1.976713e-01   5.923840e-01   5.032516e-02  
 5.234348e-08   4.920287e-01   1.698913e-01   5.848147e-01   4.924003e-02  
 5.267468e-08   4.951420e-01   1.512947e-01   5.790634e-01   4.841252e-02  
 5.291848e-08   4.974337e-01   1.397775e-01   5.748917e-01   4.781077e-02  
 5.312622e-08   4.993864e-01   1.315866e-01   5.713767e-01   4.730281e-02  
 5.336471e-08   5.016283e-01   1.239349e-01   5.673841e-01   4.672486e-02  
 5.359309e-08   5.037750e-01   1.180824e-01   5.636026e-01   4.617654e-02  
 5.378112e-08   5.055425e-01   1.141081e-01   5.605185e-01   4.572872e-02  
 5.395642e-08   5.071904e-01   1.109290e-01   5.576663e-01   4.531409e-02  
 5.415412e-08   5.090487e-01   1.078134e-01   5.544759e-01   4.484979e-02  
 5.438312e-08   5.112013e-01   1.046795e-01   5.508136e-01   4.431619e-02  
 5.463386e-08   5.135583e-01   1.016864e-01   5.468437e-01   4.373706e-02  
 5.491576e-08   5.162082e-01   9.872527e-02   5.424283e-01   4.309213e-02  
 5.525412e-08   5.193887e-01   9.558371e-02   5.371930e-01   4.232648e-02  
 5.566842e-08   5.232831e-01   9.217728e-02   5.308742e-01   4.140113e-02  
 5.617395e-08   5.280351e-01   8.848284e-02   5.232934e-01   4.028947e-02  
 5.680187e-08   5.339376e-01   8.438320e-02   5.140639e-01   3.893443e-02  
 5.760360e-08   5.414739e-01   7.968604e-02   5.025600e-01   3.724394e-02  
 5.860360e-08   5.508739e-01   7.440116e-02   4.886189e-01   3.519487e-02  
 5.960360e-08   5.602739e-01   6.956404e-02   4.750966e-01   3.320883e-02  
 6.060360e-08   5.696739e-01   6.505879e-02   4.619638e-01   3.128327e-02  
 6.160360e-08   5.790739e-01   6.081763e-02   4.491980e-01   2.941615e-02  
 6.260360e-08   5.884739e-01   5.679735e-02   4.367813e-01   2.760580e-02  
 6.360360e-08   5.978739e-01   5.296868e-02   4.247000e-01   2.585082e-02  
 6.460360e-08   6.072739e-01   4.931087e-02   4.129433e-01   2.415005e-02  
 6.560360e-08   6.166739e-01   4.580864e-02   4.015035e-01   2.250247e-02  
 6.660360e-08   6.260739e-01   4.245043e-02   3.903750e-01   2.090720e-02  
 6.760360e-08   6.354739e-01   3.922729e-02   3.795545e-01   1.936353e-02  
 6.860360e-08   6.448739e-01   3.613228e-02   3.690406e-01   1.787090e-02  
 6.960360e-08   6.542739e-01   3.316009e-02   3.588344e-01   1.642897e-02  
 7.060360e-08   6.636739e-01   3.030684e-02   3.489391e-01   1.503765e-02  
 7.160360e-08   6.730739e-01   2.757008e-02   3.393607e-01   1.369727e-02  
 7.260360e-08   6.824739e-01   2.494882e-02   3.301084e-01   1.240859e-02  
 7.360360e-08   6.918739e-01   2.244364e-02   3.211950e-01   1.117296e-02  
 7.460360e-08   7.012739e-01   2.005673e-02   3.126379e-01   9.992409e-03  
 7.560360e-08   7.106739e-01   1.779200e-02   3.044599e-01   8.869649e-03  
 7.660360e-08   7.200739e-01   1.565489e-02   2.966902e-01   7.808093e-03  
 7.760360e-08   7.294739e-01   1.365218e-02   2.893650e-01   6.811712e-03  
 7.860360e-08   7.388739e-01   1.179143e-02   2.825286e-01   5.884793e-03  
 7.960360e-08   7.482739e-01   1.008021e-02   2.762310e-01   5.031558e-03  
 8.060360e-08   7.576739e-01   8.525193e-03   2.705236e-01   4.255682e-03  
 8.160360e-08   7.670739e-01   7.130993e-03   2.654486e-01   3.559754e-03  
 8.260360e-08   7.764739e-01   5.899240e-03   2.610261e-01   2.944779e-03  
 8.360360e-08   7.858739e-01   4.827808e-03   2.572428e-01   2.409818e-03  
 8.460360e-08   7.952739e-01   3.910546e-03   2.540517e-01   1.951860e-03  
 8.560360e-08   8.046739e-01   3.137528e-03   2.513821e-01   1.565968e-03  
 8.660360e-08   8.140739e-01   2.495795e-03   2.491544e-01   1.245663e-03  
 8.760360e-08   8.234739e-01   1.970415e-03   2.472913e-01   9.834712e-04  
 8.860360e-08   8.328739e-01   1.545632e-03   2.457249e-01   7.715061e-04  
 8.960360e-08   8.422739e-01   1.205910e-03   2.443986e-01   6.019978e-04  
 9.060360e-08   8.516739e-01   9.367312e-04   2.432666e-01   4.676892e-04  
 9.160360e-08   8.610739e-01   7.250930e-04   2.422924e-01   3.620871e-04  
 9.260360e-08   8.704739e-01   5.597489e-04   2.414474e-01   2.795777e-04  
 9.360360e-08   8.798739e-01   4.312329e-04   2.407087e-01   2.154382e-04  
 9.460360e-08   8.892739e-01   3.317491e-04   2.400585e-01   1.657804e-04  
 9.560360e-08   8.986739e-01   2.549869e-04   2.394824e-01   1.274575e-04  
 9.660360e-08   9.080739e-01   1.959060e-04   2.389690e-01   9.795623e-05  
 9.760360e-08   9.174739e-01   1.505229e-04   2.385089e-01   7.529024e-05  
 9.860360e-08   9.268739e-01   1.157148e-04   2.380947e-01   5.790225e-05  
 9.930180e-08   9.334369e-01   9.636075e-05   2.378294e-01   4.823245e-05  
 1.000000e-07   9.399999e-01   8.029974e-05   2.375817e-01   4.020686e-05  
