
time (s)       getData("/nvtc getData("/SNMh getData("/SNMr getData("/SNMw

 0.000000e+00   0.000000e+00   1.109883e+00   1.109883e+00   4.457301e-01  
 1.400630e-11   1.554699e-04   1.109886e+00   1.109886e+00   4.456297e-01  
 2.411665e-11   2.676948e-04   1.109885e+00   1.109886e+00   4.455521e-01  
 3.967250e-11   4.403648e-04   1.109885e+00   1.109885e+00   4.454324e-01  
 7.078422e-11   7.857049e-04   1.109884e+00   1.109884e+00   4.451929e-01  
 1.330076e-10   1.476385e-03   1.109881e+00   1.109881e+00   4.447143e-01  
 2.043126e-10   2.267870e-03   1.109879e+00   1.109879e+00   4.441662e-01  
 2.813362e-10   3.122832e-03   1.109876e+00   1.109876e+00   4.435747e-01  
 3.611109e-10   4.008331e-03   1.109872e+00   1.109872e+00   4.429626e-01  
 4.436420e-10   4.924426e-03   1.109869e+00   1.109869e+00   4.423300e-01  
 5.286911e-10   5.868472e-03   1.109865e+00   1.109865e+00   4.416788e-01  
 6.164416e-10   6.842501e-03   1.109861e+00   1.109862e+00   4.410076e-01  
 7.070117e-10   7.847830e-03   1.109857e+00   1.109857e+00   4.403158e-01  
 8.005974e-10   8.886631e-03   1.109853e+00   1.109853e+00   4.396018e-01  
 8.973963e-10   9.961099e-03   1.109848e+00   1.109848e+00   4.388643e-01  
 9.976375e-10   1.107377e-02   1.109843e+00   1.109844e+00   4.381017e-01  
 1.089275e-09   1.209095e-02   1.109839e+00   1.109839e+00   4.374055e-01  
 1.198300e-09   1.330113e-02   1.109833e+00   1.109833e+00   4.365786e-01  
 1.297618e-09   1.440356e-02   1.109828e+00   1.109828e+00   4.358265e-01  
 1.415252e-09   1.570929e-02   1.109821e+00   1.109821e+00   4.349373e-01  
 1.522395e-09   1.689858e-02   1.109815e+00   1.109815e+00   4.341290e-01  
 1.627514e-09   1.806540e-02   1.109809e+00   1.109809e+00   4.333373e-01  
 1.737465e-09   1.928586e-02   1.109802e+00   1.109802e+00   4.325108e-01  
 1.850584e-09   2.054148e-02   1.109795e+00   1.109795e+00   4.316622e-01  
 1.967093e-09   2.183474e-02   1.109787e+00   1.109787e+00   4.307899e-01  
 2.088186e-09   2.317887e-02   1.109778e+00   1.109779e+00   4.298853e-01  
 2.214241e-09   2.457807e-02   1.109769e+00   1.109769e+00   4.289457e-01  
 2.345604e-09   2.603621e-02   1.109760e+00   1.109760e+00   4.279690e-01  
 2.482827e-09   2.755938e-02   1.109749e+00   1.109749e+00   4.269513e-01  
 2.626463e-09   2.915374e-02   1.109737e+00   1.109737e+00   4.258888e-01  
 2.777108e-09   3.082590e-02   1.109724e+00   1.109725e+00   4.247778e-01  
 2.935454e-09   3.258354e-02   1.109710e+00   1.109710e+00   4.236134e-01  
 3.102297e-09   3.443550e-02   1.109695e+00   1.109695e+00   4.223906e-01  
 3.278550e-09   3.639191e-02   1.109677e+00   1.109677e+00   4.211031e-01  
 3.465279e-09   3.846459e-02   1.109658e+00   1.109658e+00   4.197441e-01  
 3.663732e-09   4.066742e-02   1.109636e+00   1.109636e+00   4.183053e-01  
 3.875388e-09   4.301680e-02   1.109611e+00   1.109611e+00   4.167771e-01  
 4.102011e-09   4.553232e-02   1.109582e+00   1.109582e+00   4.151480e-01  
 4.345731e-09   4.823761e-02   1.109549e+00   1.109549e+00   4.134042e-01  
 4.609143e-09   5.116149e-02   1.109510e+00   1.109511e+00   4.115289e-01  
 4.895457e-09   5.433957e-02   1.109465e+00   1.109465e+00   4.095015e-01  
 5.208692e-09   5.781649e-02   1.109410e+00   1.109410e+00   4.072963e-01  
 5.553973e-09   6.164910e-02   1.109344e+00   1.109344e+00   4.048806e-01  
 5.937949e-09   6.591124e-02   1.109261e+00   1.109261e+00   4.022120e-01  
 6.369449e-09   7.070088e-02   1.109156e+00   1.109157e+00   3.992347e-01  
 6.860492e-09   7.615146e-02   1.109020e+00   1.109020e+00   3.958726e-01  
 7.427962e-09   8.245038e-02   1.108836e+00   1.108836e+00   3.920194e-01  
 8.096481e-09   8.987094e-02   1.108577e+00   1.108577e+00   3.875200e-01  
 8.903675e-09   9.883079e-02   1.108192e+00   1.108193e+00   3.821369e-01  
 9.903675e-09   1.099307e-01   1.107581e+00   1.107583e+00   3.755282e-01  
 1.090367e-08   1.210307e-01   1.106791e+00   1.106793e+00   3.689658e-01  
 1.190367e-08   1.321307e-01   1.105782e+00   1.105784e+00   3.624266e-01  
 1.290367e-08   1.432307e-01   1.104518e+00   1.104521e+00   3.558859e-01  
 1.390367e-08   1.543307e-01   1.102967e+00   1.102971e+00   3.493176e-01  
 1.490367e-08   1.654307e-01   1.101104e+00   1.101110e+00   3.426949e-01  
 1.590367e-08   1.765307e-01   1.098919e+00   1.098926e+00   3.359908e-01  
 1.690367e-08   1.876307e-01   1.096410e+00   1.096419e+00   3.291804e-01  
 1.790367e-08   1.987307e-01   1.093589e+00   1.093600e+00   3.222422e-01  
 1.890367e-08   2.098307e-01   1.090476e+00   1.090488e+00   3.151597e-01  
 1.990367e-08   2.209307e-01   1.087091e+00   1.087106e+00   3.079224e-01  
 2.090367e-08   2.320307e-01   1.083459e+00   1.083476e+00   3.005257e-01  
 2.190367e-08   2.431307e-01   1.079597e+00   1.079617e+00   2.929698e-01  
 2.290367e-08   2.542307e-01   1.075521e+00   1.075544e+00   2.852583e-01  
 2.390367e-08   2.653307e-01   1.071239e+00   1.071266e+00   2.773966e-01  
 2.490367e-08   2.764307e-01   1.066756e+00   1.066788e+00   2.693909e-01  
 2.590367e-08   2.875307e-01   1.062072e+00   1.062109e+00   2.612480e-01  
 2.690367e-08   2.986307e-01   1.057185e+00   1.057229e+00   2.529744e-01  
 2.790367e-08   3.097307e-01   1.052090e+00   1.052142e+00   2.445770e-01  
 2.890367e-08   3.208307e-01   1.046781e+00   1.046844e+00   2.360630e-01  
 2.990367e-08   3.319307e-01   1.041253e+00   1.041328e+00   2.274400e-01  
 3.090367e-08   3.430307e-01   1.035496e+00   1.035588e+00   2.187169e-01  
 3.190367e-08   3.541307e-01   1.029503e+00   1.029615e+00   2.099029e-01  
 3.290367e-08   3.652307e-01   1.023263e+00   1.023401e+00   2.010090e-01  
 3.390367e-08   3.763307e-01   1.016763e+00   1.016934e+00   1.920470e-01  
 3.490367e-08   3.874307e-01   1.009984e+00   1.010200e+00   1.830306e-01  
 3.590367e-08   3.985307e-01   1.002903e+00   1.003177e+00   1.739754e-01  
 3.690367e-08   4.096307e-01   9.954836e-01   9.958365e-01   1.648999e-01  
 3.790367e-08   4.207307e-01   9.876705e-01   9.881315e-01   1.558272e-01  
 3.890367e-08   4.318307e-01   9.793780e-01   9.799918e-01   1.467884e-01  
 3.990367e-08   4.429307e-01   9.704603e-01   9.712993e-01   1.378298e-01  
 4.090367e-08   4.540307e-01   9.606510e-01   9.618446e-01   1.290288e-01  
 4.190367e-08   4.651307e-01   9.494050e-01   9.512218e-01   1.205240e-01  
 4.290367e-08   4.762307e-01   9.353774e-01   9.385392e-01   1.125552e-01  
 4.382633e-08   4.864723e-01   9.166419e-01   9.232822e-01   1.059471e-01  
 4.429473e-08   4.916716e-01   9.022841e-01   9.132988e-01   1.029251e-01  
 4.473122e-08   4.965165e-01   8.837475e-01   9.022888e-01   1.003131e-01  
 4.510415e-08   5.006560e-01   8.629589e-01   8.917333e-01   9.822748e-02  
 4.540627e-08   5.040095e-01   8.429774e-01   8.827026e-01   9.662775e-02  
 4.569797e-08   5.072474e-01   8.214229e-01   8.738246e-01   9.515219e-02  
 4.600140e-08   5.106156e-01   7.970651e-01   8.646120e-01   9.368199e-02  
 4.632144e-08   5.141680e-01   7.696258e-01   8.550501e-01   9.219511e-02  
 4.666677e-08   5.180011e-01   7.383747e-01   8.449891e-01   9.065551e-02  
 4.704473e-08   5.221965e-01   7.025966e-01   8.343155e-01   8.903761e-02  
 4.746223e-08   5.268308e-01   6.616009e-01   8.229335e-01   8.732089e-02  
 4.793187e-08   5.320438e-01   6.141868e-01   8.106089e-01   8.546516e-02  
 4.848040e-08   5.381324e-01   5.578554e-01   7.967926e-01   8.338282e-02  
 4.918386e-08   5.459409e-01   4.855361e-01   7.798706e-01   8.082310e-02  
 4.995487e-08   5.544991e-01   4.082765e-01   7.622023e-01   7.813421e-02  
 5.071467e-08   5.629328e-01   3.365303e-01   7.455524e-01   7.558201e-02  
 5.132356e-08   5.696915e-01   2.838077e-01   7.326789e-01   7.359565e-02  
 5.182706e-08   5.752804e-01   2.445132e-01   7.223129e-01   7.198788e-02  
 5.226632e-08   5.801561e-01   2.144054e-01   7.134573e-01   7.060860e-02  
 5.264689e-08   5.843804e-01   1.924951e-01   7.059160e-01   6.942993e-02  
 5.297482e-08   5.880205e-01   1.774368e-01   6.995091e-01   6.842573e-02  
 5.326649e-08   5.912580e-01   1.670485e-01   6.938786e-01   6.754109e-02  
 5.354565e-08   5.943567e-01   1.592972e-01   6.885464e-01   6.670160e-02  
 5.383630e-08   5.975830e-01   1.529121e-01   6.830516e-01   6.583476e-02  
 5.415762e-08   6.011495e-01   1.472346e-01   6.770418e-01   6.488476e-02  
 5.452888e-08   6.052706e-01   1.418684e-01   6.701789e-01   6.379754e-02  
 5.497234e-08   6.101930e-01   1.365353e-01   6.620900e-01   6.251303e-02  
 5.551456e-08   6.162116e-01   1.310262e-01   6.523521e-01   6.096256e-02  
 5.618621e-08   6.236669e-01   1.251311e-01   6.405084e-01   5.907126e-02  
 5.703804e-08   6.331222e-01   1.185742e-01   6.258136e-01   5.671715e-02  
 5.803804e-08   6.442222e-01   1.116905e-01   6.089958e-01   5.401419e-02  
 5.903804e-08   6.553222e-01   1.053788e-01   5.926157e-01   5.137411e-02  
 6.003804e-08   6.664222e-01   9.947671e-02   5.766494e-01   4.879499e-02  
 6.103804e-08   6.775222e-01   9.388443e-02   5.610793e-01   4.627555e-02  
 6.203804e-08   6.886222e-01   8.854537e-02   5.458932e-01   4.381500e-02  
 6.303804e-08   6.997222e-01   8.342259e-02   5.310829e-01   4.141291e-02  
 6.403804e-08   7.108222e-01   7.849134e-02   5.166435e-01   3.906914e-02  
 6.503804e-08   7.219222e-01   7.373442e-02   5.025731e-01   3.678372e-02  
 6.603804e-08   7.330222e-01   6.913955e-02   4.888720e-01   3.455678e-02  
 6.703804e-08   7.441222e-01   6.469770e-02   4.755423e-01   3.238852e-02  
 6.803804e-08   7.552222e-01   6.040204e-02   4.625881e-01   3.027911e-02  
 6.903804e-08   7.663222e-01   5.624719e-02   4.500150e-01   2.822867e-02  
 7.003804e-08   7.774222e-01   5.222877e-02   4.378306e-01   2.623723e-02  
 7.103804e-08   7.885222e-01   4.834308e-02   4.260441e-01   2.430473e-02  
 7.203804e-08   7.996222e-01   4.458691e-02   4.146678e-01   2.243103e-02  
 7.303804e-08   8.107222e-01   4.095752e-02   4.037170e-01   2.061596e-02  
 7.403804e-08   8.218222e-01   3.745277e-02   3.932121e-01   1.885945e-02  
 7.503804e-08   8.329222e-01   3.407127e-02   3.831805e-01   1.716165e-02  
 7.603804e-08   8.440222e-01   3.081280e-02   3.736584e-01   1.552318e-02  
 7.703804e-08   8.551222e-01   2.767879e-02   3.646937e-01   1.394536e-02  
 7.803804e-08   8.662222e-01   2.467278e-02   3.563472e-01   1.243052e-02  
 7.903804e-08   8.773222e-01   2.180103e-02   3.486897e-01   1.098229e-02  
 8.003804e-08   8.884222e-01   1.907279e-02   3.417925e-01   9.605770e-03  
 8.103804e-08   8.995222e-01   1.650043e-02   3.357091e-01   8.307540e-03  
 8.203804e-08   9.106222e-01   1.409891e-02   3.304560e-01   7.095479e-03  
 8.303804e-08   9.217222e-01   1.188469e-02   3.260019e-01   5.978149e-03  
 8.403804e-08   9.328222e-01   9.873921e-03   3.222755e-01   4.963874e-03  
 8.503804e-08   9.439222e-01   8.080039e-03   3.191830e-01   4.059532e-03  
 8.603804e-08   9.550222e-01   6.511285e-03   3.166261e-01   3.269270e-03  
 8.703804e-08   9.661222e-01   5.168603e-03   3.145131e-01   2.593474e-03  
 8.803804e-08   9.772222e-01   4.044626e-03   3.127637e-01   2.028278e-03  
 8.903804e-08   9.883222e-01   3.124084e-03   3.113097e-01   1.565807e-03  
 9.003804e-08   9.994222e-01   2.385539e-03   3.100946e-01   1.195094e-03  
 9.103804e-08   1.010522e+00   1.803941e-03   3.090723e-01   9.033904e-04  
 9.203804e-08   1.021622e+00   1.353282e-03   3.082058e-01   6.775108e-04  
 9.303804e-08   1.032722e+00   1.008783e-03   3.074652e-01   5.049360e-04  
 9.403804e-08   1.043822e+00   7.483226e-04   3.068273e-01   3.745174e-04  
 9.489382e-08   1.053321e+00   5.778631e-04   3.063488e-01   2.891918e-04  
 9.554902e-08   1.060594e+00   4.734671e-04   3.060182e-01   2.369458e-04  
 9.605514e-08   1.066212e+00   4.056795e-04   3.057816e-01   2.030253e-04  
 9.645808e-08   1.070684e+00   3.586170e-04   3.056039e-01   1.794776e-04  
 9.678752e-08   1.074341e+00   3.241781e-04   3.054651e-01   1.622471e-04  
 9.706539e-08   1.077425e+00   2.976916e-04   3.053523e-01   1.489960e-04  
 9.730650e-08   1.080102e+00   2.764567e-04   3.052575e-01   1.383727e-04  
 9.752031e-08   1.082475e+00   2.588904e-04   3.051757e-01   1.295849e-04  
 9.771320e-08   1.084616e+00   2.440000e-04   3.051037e-01   1.221359e-04  
 9.788958e-08   1.086574e+00   2.311330e-04   3.050393e-01   1.156993e-04  
 9.805257e-08   1.088383e+00   2.198470e-04   3.049809e-01   1.100537e-04  
 9.820441e-08   1.090068e+00   2.098298e-04   3.049275e-01   1.050429e-04  
 9.834678e-08   1.091649e+00   2.008529e-04   3.048783e-01   1.005525e-04  
 9.848098e-08   1.093138e+00   1.927446e-04   3.048327e-01   9.649666e-05  
 9.860802e-08   1.094549e+00   1.853721e-04   3.047902e-01   9.280891e-05  
 9.872871e-08   1.095888e+00   1.786307e-04   3.047503e-01   8.943687e-05  
 9.884373e-08   1.097165e+00   1.724361e-04   3.047128e-01   8.633836e-05  
 9.895363e-08   1.098385e+00   1.667194e-04   3.046775e-01   8.347894e-05  
 9.905888e-08   1.099553e+00   1.614236e-04   3.046440e-01   8.083006e-05  
 9.915990e-08   1.100674e+00   1.565009e-04   3.046123e-01   7.836781e-05  
 9.925702e-08   1.101752e+00   1.519108e-04   3.045821e-01   7.607195e-05  
 9.935518e-08   1.102842e+00   1.474101e-04   3.045520e-01   7.382082e-05  
 9.944934e-08   1.103887e+00   1.432198e-04   3.045234e-01   7.172496e-05  
 9.954102e-08   1.104905e+00   1.392557e-04   3.044958e-01   6.974222e-05  
 9.962960e-08   1.105888e+00   1.355316e-04   3.044694e-01   6.787955e-05  
 9.971552e-08   1.106842e+00   1.320154e-04   3.044441e-01   6.612093e-05  
 9.980050e-08   1.107785e+00   1.286291e-04   3.044192e-01   6.442722e-05  
 9.990025e-08   1.108892e+00   1.247669e-04   3.043904e-01   6.249551e-05  
 1.000000e-07   1.110000e+00   1.210227e-04   3.043618e-01   6.062282e-05  
