
time (s)       getData("/nvtc getData("/SNMh getData("/SNMr getData("/SNMw

 0.000000e+00   0.000000e+00   8.699278e-01   8.699279e-01   3.247655e-01  
 1.564887e-11   1.361452e-04   8.699303e-01   8.699303e-01   3.246300e-01  
 2.713994e-11   2.361175e-04   8.699301e-01   8.699302e-01   3.245237e-01  
 4.426788e-11   3.851305e-04   8.699298e-01   8.699299e-01   3.243648e-01  
 7.852375e-11   6.831566e-04   8.699292e-01   8.699292e-01   3.240474e-01  
 1.470355e-10   1.279208e-03   8.699279e-01   8.699279e-01   3.234145e-01  
 2.840589e-10   2.471313e-03   8.699253e-01   8.699253e-01   3.221561e-01  
 5.581059e-10   4.855521e-03   8.699198e-01   8.699198e-01   3.196699e-01  
 1.106199e-09   9.623939e-03   8.699076e-01   8.699076e-01   3.148221e-01  
 1.915862e-09   1.666800e-02   8.698861e-01   8.698862e-01   3.079690e-01  
 2.843098e-09   2.473495e-02   8.698557e-01   8.698557e-01   3.005640e-01  
 3.843098e-09   3.343495e-02   8.698139e-01   8.698140e-01   2.930740e-01  
 4.843098e-09   4.213495e-02   8.697603e-01   8.697605e-01   2.860434e-01  
 5.843098e-09   5.083495e-02   8.696918e-01   8.696920e-01   2.794090e-01  
 6.843098e-09   5.953495e-02   8.696042e-01   8.696044e-01   2.731091e-01  
 7.843098e-09   6.823495e-02   8.694924e-01   8.694927e-01   2.670881e-01  
 8.843098e-09   7.693495e-02   8.693501e-01   8.693505e-01   2.612979e-01  
 9.843098e-09   8.563495e-02   8.691696e-01   8.691701e-01   2.556979e-01  
 1.084309e-08   9.433495e-02   8.689412e-01   8.689419e-01   2.502540e-01  
 1.184309e-08   1.030349e-01   8.686537e-01   8.686546e-01   2.449375e-01  
 1.284309e-08   1.117349e-01   8.682938e-01   8.682949e-01   2.397242e-01  
 1.384309e-08   1.204349e-01   8.678461e-01   8.678474e-01   2.345927e-01  
 1.484309e-08   1.291349e-01   8.672936e-01   8.672953e-01   2.295245e-01  
 1.584309e-08   1.378349e-01   8.666179e-01   8.666200e-01   2.245023e-01  
 1.684309e-08   1.465349e-01   8.658002e-01   8.658029e-01   2.195103e-01  
 1.784309e-08   1.552349e-01   8.648222e-01   8.648256e-01   2.145331e-01  
 1.884309e-08   1.639349e-01   8.636671e-01   8.636712e-01   2.095563e-01  
 1.984309e-08   1.726349e-01   8.623209e-01   8.623260e-01   2.045653e-01  
 2.084309e-08   1.813349e-01   8.607734e-01   8.607796e-01   1.995467e-01  
 2.184309e-08   1.900349e-01   8.590184e-01   8.590259e-01   1.944877e-01  
 2.284309e-08   1.987349e-01   8.570540e-01   8.570628e-01   1.893768e-01  
 2.384309e-08   2.074349e-01   8.548815e-01   8.548919e-01   1.842041e-01  
 2.484309e-08   2.161349e-01   8.525050e-01   8.525171e-01   1.789622e-01  
 2.584309e-08   2.248349e-01   8.499297e-01   8.499436e-01   1.736453e-01  
 2.684309e-08   2.335349e-01   8.471611e-01   8.471770e-01   1.682505e-01  
 2.784309e-08   2.422349e-01   8.442036e-01   8.442216e-01   1.627764e-01  
 2.884309e-08   2.509349e-01   8.410598e-01   8.410804e-01   1.572239e-01  
 2.984309e-08   2.596349e-01   8.377302e-01   8.377536e-01   1.515949e-01  
 3.084309e-08   2.683349e-01   8.342123e-01   8.342390e-01   1.458927e-01  
 3.184309e-08   2.770349e-01   8.305007e-01   8.305313e-01   1.401212e-01  
 3.284309e-08   2.857349e-01   8.265866e-01   8.266219e-01   1.342854e-01  
 3.384309e-08   2.944349e-01   8.224574e-01   8.224984e-01   1.283906e-01  
 3.484309e-08   3.031349e-01   8.180956e-01   8.181437e-01   1.224430e-01  
 3.584309e-08   3.118349e-01   8.134774e-01   8.135344e-01   1.164500e-01  
 3.684309e-08   3.205349e-01   8.085701e-01   8.086383e-01   1.104202e-01  
 3.784309e-08   3.292349e-01   8.033262e-01   8.034093e-01   1.043647e-01  
 3.884309e-08   3.379349e-01   7.976745e-01   7.977778e-01   9.829850e-02  
 3.984309e-08   3.466349e-01   7.915002e-01   7.916323e-01   9.224311e-02  
 4.084309e-08   3.553349e-01   7.846016e-01   7.847781e-01   8.623275e-02  
 4.184309e-08   3.640349e-01   7.765808e-01   7.768346e-01   8.032456e-02  
 4.273585e-08   3.718019e-01   7.677303e-01   7.681261e-01   7.521350e-02  
 4.316148e-08   3.755049e-01   7.625197e-01   7.630439e-01   7.286067e-02  
 4.352609e-08   3.786769e-01   7.571930e-01   7.579005e-01   7.090186e-02  
 4.385586e-08   3.815459e-01   7.513480e-01   7.523359e-01   6.918257e-02  
 4.411080e-08   3.837640e-01   7.458565e-01   7.472025e-01   6.789126e-02  
 4.430329e-08   3.854386e-01   7.409463e-01   7.427030e-01   6.693975e-02  
 4.447100e-08   3.868977e-01   7.359958e-01   7.382615e-01   6.612787e-02  
 4.463923e-08   3.883613e-01   7.302865e-01   7.332645e-01   6.532997e-02  
 4.481628e-08   3.899016e-01   7.233718e-01   7.273980e-01   6.450833e-02  
 4.503632e-08   3.918160e-01   7.134013e-01   7.193019e-01   6.351340e-02  
 4.526526e-08   3.938077e-01   7.014470e-01   7.101612e-01   6.250909e-02  
 4.543460e-08   3.952810e-01   6.916736e-01   7.031434e-01   6.178631e-02  
 4.556550e-08   3.964198e-01   6.836480e-01   6.976814e-01   6.123910e-02  
 4.569698e-08   3.975637e-01   6.752265e-01   6.922325e-01   6.069941e-02  
 4.585299e-08   3.989210e-01   6.648255e-01   6.858835e-01   6.007171e-02  
 4.601735e-08   4.003509e-01   6.534537e-01   6.793905e-01   5.942493e-02  
 4.618981e-08   4.018513e-01   6.411284e-01   6.728338e-01   5.876172e-02  
 4.639701e-08   4.036540e-01   6.258667e-01   6.653266e-01   5.798509e-02  
 4.667444e-08   4.060676e-01   6.047812e-01   6.558953e-01   5.697790e-02  
 4.703506e-08   4.092050e-01   5.764704e-01   6.445948e-01   5.572056e-02  
 4.744556e-08   4.127763e-01   5.432868e-01   6.328361e-01   5.435404e-02  
 4.790434e-08   4.167678e-01   5.053331e-01   6.207979e-01   5.289893e-02  
 4.842552e-08   4.213020e-01   4.615341e-01   6.082160e-01   5.132633e-02  
 4.901850e-08   4.264610e-01   4.113813e-01   5.949851e-01   4.962607e-02  
 4.969375e-08   4.323356e-01   3.546535e-01   5.809973e-01   4.778743e-02  
 5.037526e-08   4.382647e-01   2.987526e-01   5.677889e-01   4.602046e-02  
 5.100132e-08   4.437114e-01   2.494977e-01   5.563032e-01   4.446430e-02  
 5.157614e-08   4.487124e-01   2.068862e-01   5.462147e-01   4.308486e-02  
 5.209992e-08   4.532693e-01   1.711641e-01   5.373518e-01   4.186472e-02  
 5.253286e-08   4.570359e-01   1.449920e-01   5.302375e-01   4.088044e-02  
 5.284360e-08   4.597393e-01   1.290454e-01   5.252390e-01   4.018660e-02  
 5.306437e-08   4.616600e-01   1.196072e-01   5.217391e-01   3.969976e-02  
 5.326715e-08   4.634242e-01   1.124107e-01   5.185604e-01   3.925692e-02  
 5.349847e-08   4.654367e-01   1.057717e-01   5.149746e-01   3.875664e-02  
 5.370330e-08   4.672187e-01   1.010371e-01   5.118339e-01   3.831789e-02  
 5.387686e-08   4.687287e-01   9.767789e-02   5.091972e-01   3.794917e-02  
 5.405100e-08   4.702437e-01   9.477096e-02   5.065736e-01   3.758195e-02  
 5.425210e-08   4.719933e-01   9.186029e-02   5.035705e-01   3.716124e-02  
 5.447984e-08   4.739746e-01   8.900345e-02   5.002028e-01   3.668904e-02  
 5.472931e-08   4.761450e-01   8.627417e-02   4.965529e-01   3.617680e-02  
 5.501639e-08   4.786426e-01   8.351596e-02   4.924014e-01   3.559369e-02  
 5.536432e-08   4.816696e-01   8.057297e-02   4.874371e-01   3.489582e-02  
 5.578876e-08   4.853622e-01   7.740734e-02   4.814757e-01   3.405717e-02  
 5.630784e-08   4.898782e-01   7.398105e-02   4.743192e-01   3.304984e-02  
 5.695777e-08   4.955326e-01   7.016765e-02   4.655532e-01   3.181576e-02  
 5.779114e-08   5.027829e-01   6.580634e-02   4.546067e-01   3.027555e-02  
 5.879114e-08   5.114829e-01   6.110838e-02   4.418720e-01   2.848677e-02  
 5.979114e-08   5.201829e-01   5.682442e-02   4.295387e-01   2.675951e-02  
 6.079114e-08   5.288829e-01   5.285107e-02   4.175763e-01   2.509091e-02  
 6.179114e-08   5.375829e-01   4.912677e-02   4.059608e-01   2.347863e-02  
 6.279114e-08   5.462829e-01   4.561165e-02   3.946730e-01   2.192068e-02  
 6.379114e-08   5.549829e-01   4.227833e-02   3.836977e-01   2.041542e-02  
 6.479114e-08   5.636829e-01   3.910720e-02   3.730230e-01   1.896148e-02  
 6.579114e-08   5.723829e-01   3.608383e-02   3.626398e-01   1.755774e-02  
 6.679114e-08   5.810829e-01   3.319739e-02   3.525418e-01   1.620334e-02  
 6.779114e-08   5.897829e-01   3.043973e-02   3.427250e-01   1.489773e-02  
 6.879114e-08   5.984829e-01   2.780493e-02   3.331877e-01   1.364069e-02  
 6.979114e-08   6.071829e-01   2.528888e-02   3.239305e-01   1.243236e-02  
 7.079114e-08   6.158829e-01   2.288922e-02   3.149565e-01   1.127334e-02  
 7.179114e-08   6.245829e-01   2.060519e-02   3.062714e-01   1.016473e-02  
 7.279114e-08   6.332829e-01   1.843754e-02   2.978832e-01   9.108141e-03  
 7.379114e-08   6.419829e-01   1.638846e-02   2.898030e-01   8.105686e-03  
 7.479114e-08   6.506829e-01   1.446132e-02   2.820448e-01   7.159951e-03  
 7.579114e-08   6.593829e-01   1.266041e-02   2.746256e-01   6.273833e-03  
 7.679114e-08   6.680829e-01   1.099046e-02   2.675664e-01   5.450339e-03  
 7.779114e-08   6.767829e-01   9.456010e-03   2.608929e-01   4.692297e-03  
 7.879114e-08   6.854829e-01   8.060747e-03   2.546353e-01   4.002009e-03  
 7.979114e-08   6.941829e-01   6.806755e-03   2.488296e-01   3.380896e-03  
 8.079114e-08   7.028829e-01   5.693873e-03   2.435147e-01   2.829183e-03  
 8.179114e-08   7.115829e-01   4.719250e-03   2.387276e-01   2.345680e-03  
 8.279114e-08   7.202829e-01   3.877198e-03   2.344937e-01   1.927728e-03  
 8.379114e-08   7.289829e-01   3.159386e-03   2.308164e-01   1.571297e-03  
 8.479114e-08   7.376829e-01   2.555331e-03   2.276716e-01   1.271253e-03  
 8.579114e-08   7.463829e-01   2.053102e-03   2.250105e-01   1.021715e-03  
 8.679114e-08   7.550829e-01   1.640091e-03   2.227696e-01   8.164482e-04  
 8.779114e-08   7.637829e-01   1.303742e-03   2.208824e-01   6.492346e-04  
 8.879114e-08   7.724829e-01   1.032131e-03   2.192869e-01   5.141641e-04  
 8.979114e-08   7.811829e-01   8.143709e-04   2.179294e-01   4.058380e-04  
 9.079114e-08   7.898829e-01   6.408323e-04   2.167658e-01   3.194803e-04  
 9.179114e-08   7.985829e-01   5.032200e-04   2.157606e-01   2.509757e-04  
 9.279114e-08   8.072829e-01   3.945373e-04   2.148852e-01   1.968519e-04  
 9.379114e-08   8.159829e-01   3.089819e-04   2.141173e-01   1.542290e-04  
 9.479114e-08   8.246829e-01   2.418079e-04   2.134389e-01   1.207504e-04  
 9.579114e-08   8.333829e-01   1.891754e-04   2.128357e-01   9.450888e-05  
 9.679114e-08   8.420829e-01   1.480040e-04   2.122962e-01   7.397365e-05  
 9.779114e-08   8.507829e-01   1.158393e-04   2.118112e-01   5.792467e-05  
 9.879114e-08   8.594829e-01   9.073631e-05   2.113730e-01   4.539462e-05  
 9.939557e-08   8.647414e-01   7.832690e-05   2.111282e-01   3.919871e-05  
 1.000000e-07   8.700000e-01   6.765184e-05   2.108970e-01   3.386763e-05  
