
time (s)       getData("/nvtc getData("/SNMh getData("/SNMr getData("/SNMw

 0.000000e+00   0.000000e+00   8.398126e-01   8.398129e-01   3.249143e-01  
 1.590387e-11   1.335925e-04   8.398147e-01   8.398150e-01   3.247939e-01  
 2.760975e-11   2.319219e-04   8.398143e-01   8.398146e-01   3.246994e-01  
 4.497877e-11   3.778216e-04   8.398135e-01   8.398138e-01   3.245589e-01  
 7.971679e-11   6.696210e-04   8.398121e-01   8.398124e-01   3.242780e-01  
 1.491928e-10   1.253219e-03   8.398091e-01   8.398094e-01   3.237176e-01  
 2.881449e-10   2.420417e-03   8.398031e-01   8.398034e-01   3.226017e-01  
 5.660491e-10   4.754812e-03   8.397904e-01   8.397907e-01   3.203904e-01  
 1.121857e-09   9.423603e-03   8.397626e-01   8.397630e-01   3.160524e-01  
 2.056560e-09   1.727511e-02   8.397076e-01   8.397081e-01   3.090180e-01  
 3.056560e-09   2.567511e-02   8.396348e-01   8.396355e-01   3.018514e-01  
 4.056560e-09   3.407511e-02   8.395445e-01   8.395452e-01   2.950353e-01  
 5.056560e-09   4.247511e-02   8.394323e-01   8.394333e-01   2.885358e-01  
 6.056560e-09   5.087511e-02   8.392934e-01   8.392946e-01   2.823142e-01  
 7.056560e-09   5.927511e-02   8.391218e-01   8.391233e-01   2.763316e-01  
 8.056560e-09   6.767511e-02   8.389103e-01   8.389121e-01   2.705516e-01  
 9.056560e-09   7.607511e-02   8.386504e-01   8.386527e-01   2.649413e-01  
 1.005656e-08   8.447511e-02   8.383323e-01   8.383352e-01   2.594719e-01  
 1.105656e-08   9.287511e-02   8.379448e-01   8.379484e-01   2.541181e-01  
 1.205656e-08   1.012751e-01   8.374754e-01   8.374798e-01   2.488574e-01  
 1.305656e-08   1.096751e-01   8.369101e-01   8.369155e-01   2.436701e-01  
 1.405656e-08   1.180751e-01   8.362342e-01   8.362409e-01   2.385384e-01  
 1.505656e-08   1.264751e-01   8.354326e-01   8.354408e-01   2.334458e-01  
 1.605656e-08   1.348751e-01   8.344904e-01   8.345004e-01   2.283773e-01  
 1.705656e-08   1.432751e-01   8.333933e-01   8.334055e-01   2.233184e-01  
 1.805656e-08   1.516751e-01   8.321289e-01   8.321435e-01   2.182558e-01  
 1.905656e-08   1.600751e-01   8.306867e-01   8.307042e-01   2.131769e-01  
 2.005656e-08   1.684751e-01   8.290590e-01   8.290799e-01   2.080698e-01  
 2.105656e-08   1.768751e-01   8.272410e-01   8.272656e-01   2.029241e-01  
 2.205656e-08   1.852751e-01   8.252304e-01   8.252591e-01   1.977304e-01  
 2.305656e-08   1.936751e-01   8.230274e-01   8.230606e-01   1.924811e-01  
 2.405656e-08   2.020751e-01   8.206338e-01   8.206718e-01   1.871700e-01  
 2.505656e-08   2.104751e-01   8.180524e-01   8.180957e-01   1.817931e-01  
 2.605656e-08   2.188751e-01   8.152865e-01   8.153355e-01   1.763477e-01  
 2.705656e-08   2.272751e-01   8.123387e-01   8.123940e-01   1.708329e-01  
 2.805656e-08   2.356751e-01   8.092107e-01   8.092731e-01   1.652493e-01  
 2.905656e-08   2.440751e-01   8.059027e-01   8.059731e-01   1.595984e-01  
 3.005656e-08   2.524751e-01   8.024131e-01   8.024927e-01   1.538828e-01  
 3.105656e-08   2.608751e-01   7.987378e-01   7.988281e-01   1.481061e-01  
 3.205656e-08   2.692751e-01   7.948704e-01   7.949733e-01   1.422722e-01  
 3.305656e-08   2.776751e-01   7.908012e-01   7.909193e-01   1.363860e-01  
 3.405656e-08   2.860751e-01   7.865171e-01   7.866534e-01   1.304528e-01  
 3.505656e-08   2.944751e-01   7.820000e-01   7.821586e-01   1.244790e-01  
 3.605656e-08   3.028751e-01   7.772251e-01   7.774114e-01   1.184723e-01  
 3.705656e-08   3.112751e-01   7.721581e-01   7.723796e-01   1.124420e-01  
 3.805656e-08   3.196751e-01   7.667499e-01   7.670169e-01   1.064006e-01  
 3.905656e-08   3.280751e-01   7.609261e-01   7.612544e-01   1.003656e-01  
 4.005656e-08   3.364751e-01   7.545680e-01   7.549824e-01   9.436317e-02  
 4.105656e-08   3.448751e-01   7.474698e-01   7.480142e-01   8.843460e-02  
 4.205656e-08   3.532751e-01   7.392348e-01   7.399988e-01   8.264740e-02  
 4.297112e-08   3.609574e-01   7.299745e-01   7.311303e-01   7.756663e-02  
 4.342363e-08   3.647584e-01   7.243090e-01   7.258252e-01   7.516060e-02  
 4.380777e-08   3.679853e-01   7.185863e-01   7.205918e-01   7.318749e-02  
 4.418702e-08   3.711710e-01   7.116986e-01   7.145008e-01   7.130954e-02  
 4.447574e-08   3.735962e-01   7.052574e-01   7.090435e-01   6.992988e-02  
 4.469570e-08   3.754439e-01   6.994113e-01   7.043026e-01   6.890891e-02  
 4.489818e-08   3.771447e-01   6.931428e-01   6.994414e-01   6.799246e-02  
 4.512034e-08   3.790109e-01   6.851330e-01   6.935463e-01   6.701279e-02  
 4.537435e-08   3.811446e-01   6.744059e-01   6.861507e-01   6.592566e-02  
 4.562773e-08   3.832729e-01   6.620611e-01   6.782513e-01   6.487564e-02  
 4.583933e-08   3.850504e-01   6.506196e-01   6.714345e-01   6.402438e-02  
 4.601070e-08   3.864899e-01   6.407042e-01   6.658742e-01   6.335153e-02  
 4.617745e-08   3.878906e-01   6.305787e-01   6.604962e-01   6.271057e-02  
 4.636882e-08   3.894981e-01   6.184628e-01   6.544215e-01   6.199116e-02  
 4.658007e-08   3.912726e-01   6.045675e-01   6.478864e-01   6.121627e-02  
 4.680796e-08   3.931868e-01   5.890651e-01   6.410728e-01   6.040193e-02  
 4.707529e-08   3.954325e-01   5.703183e-01   6.334097e-01   5.947357e-02  
 4.741472e-08   3.982837e-01   5.458101e-01   6.241801e-01   5.833384e-02  
 4.784461e-08   4.018947e-01   5.138999e-01   6.132220e-01   5.694743e-02  
 4.834891e-08   4.061308e-01   4.755970e-01   6.012573e-01   5.539337e-02  
 4.894527e-08   4.111402e-01   4.296187e-01   5.881194e-01   5.364325e-02  
 4.962484e-08   4.168487e-01   3.770532e-01   5.742085e-01   5.174791e-02  
 5.033327e-08   4.227994e-01   3.229457e-01   5.606567e-01   4.986724e-02  
 5.100642e-08   4.284539e-01   2.730771e-01   5.485025e-01   4.815703e-02  
 5.163217e-08   4.337102e-01   2.289203e-01   5.377280e-01   4.662559e-02  
 5.220812e-08   4.385482e-01   1.910456e-01   5.281937e-01   4.526018e-02  
 5.270255e-08   4.427014e-01   1.616923e-01   5.202669e-01   4.411869e-02  
 5.307766e-08   4.458523e-01   1.423882e-01   5.143972e-01   4.327019e-02  
 5.334756e-08   4.481195e-01   1.306801e-01   5.102454e-01   4.266851e-02  
 5.357279e-08   4.500114e-01   1.225008e-01   5.068242e-01   4.217186e-02  
 5.382569e-08   4.521358e-01   1.149779e-01   5.030278e-01   4.161989e-02  
 5.407655e-08   4.542430e-01   1.089912e-01   4.993076e-01   4.107820e-02  
 5.428682e-08   4.560093e-01   1.048619e-01   4.962225e-01   4.062845e-02  
 5.448063e-08   4.576373e-01   1.016076e-01   4.934052e-01   4.021731e-02  
 5.469631e-08   4.594490e-01   9.846535e-02   4.902985e-01   3.976353e-02  
 5.494690e-08   4.615539e-01   9.529940e-02   4.867256e-01   3.924117e-02  
 5.522326e-08   4.638754e-01   9.226098e-02   4.828291e-01   3.867094e-02  
 5.553346e-08   4.664811e-01   8.926930e-02   4.785085e-01   3.803805e-02  
 5.590437e-08   4.695967e-01   8.611708e-02   4.734126e-01   3.729094e-02  
 5.635885e-08   4.734143e-01   8.270839e-02   4.672680e-01   3.638932e-02  
 5.691441e-08   4.780810e-01   7.902036e-02   4.598979e-01   3.530713e-02  
 5.760405e-08   4.838740e-01   7.495023e-02   4.509513e-01   3.399295e-02  
 5.848319e-08   4.912588e-01   7.032030e-02   4.398483e-01   3.236234e-02  
 5.948319e-08   4.996588e-01   6.557973e-02   4.275987e-01   3.056535e-02  
 6.048319e-08   5.080588e-01   6.124038e-02   4.157223e-01   2.882678e-02  
 6.148319e-08   5.164588e-01   5.720579e-02   4.041931e-01   2.714398e-02  
 6.248319e-08   5.248588e-01   5.341692e-02   3.929900e-01   2.551475e-02  
 6.348319e-08   5.332588e-01   4.983484e-02   3.820963e-01   2.393729e-02  
 6.448319e-08   5.416588e-01   4.643256e-02   3.714990e-01   2.241009e-02  
 6.548319e-08   5.500588e-01   4.319064e-02   3.611878e-01   2.093190e-02  
 6.648319e-08   5.584588e-01   4.009471e-02   3.511552e-01   1.950175e-02  
 6.748319e-08   5.668588e-01   3.713396e-02   3.413962e-01   1.811893e-02  
 6.848319e-08   5.752588e-01   3.430023e-02   3.319081e-01   1.678297e-02  
 6.948319e-08   5.836588e-01   3.158741e-02   3.226906e-01   1.549366e-02  
 7.048319e-08   5.920588e-01   2.899114e-02   3.137457e-01   1.425112e-02  
 7.148319e-08   6.004588e-01   2.650852e-02   3.050779e-01   1.305577e-02  
 7.248319e-08   6.088588e-01   2.413798e-02   2.966949e-01   1.190837e-02  
 7.348319e-08   6.172588e-01   2.187913e-02   2.886074e-01   1.081004e-02  
 7.448319e-08   6.256588e-01   1.973270e-02   2.808303e-01   9.762219e-03  
 7.548319e-08   6.340588e-01   1.770034e-02   2.733834e-01   8.766677e-03  
 7.648319e-08   6.424588e-01   1.578444e-02   2.662924e-01   7.825417e-03  
 7.748319e-08   6.508588e-01   1.398791e-02   2.595901e-01   6.940577e-03  
 7.848319e-08   6.592588e-01   1.231379e-02   2.533165e-01   6.114283e-03  
 7.948319e-08   6.676588e-01   1.076495e-02   2.475179e-01   5.348466e-03  
 8.048319e-08   6.760588e-01   9.343576e-03   2.422415e-01   4.644650e-03  
 8.148319e-08   6.844588e-01   8.050771e-03   2.375256e-01   4.003744e-03  
 8.248319e-08   6.928588e-01   6.886166e-03   2.333884e-01   3.425849e-03  
 8.348319e-08   7.012588e-01   5.847624e-03   2.298184e-01   2.910127e-03  
 8.448319e-08   7.096588e-01   4.931099e-03   2.267753e-01   2.454734e-03  
 8.548319e-08   7.180588e-01   4.130680e-03   2.241990e-01   2.056850e-03  
 8.648319e-08   7.264588e-01   3.438805e-03   2.220219e-01   1.712796e-03  
 8.748319e-08   7.348588e-01   2.846618e-03   2.201781e-01   1.418226e-03  
 8.848319e-08   7.432588e-01   2.344419e-03   2.186093e-01   1.168349e-03  
 8.948319e-08   7.516588e-01   1.922132e-03   2.172664e-01   9.581803e-04  
 9.048319e-08   7.600588e-01   1.569746e-03   2.161088e-01   7.827542e-04  
 9.148319e-08   7.684588e-01   1.277672e-03   2.151040e-01   6.373135e-04  
 9.248319e-08   7.768588e-01   1.037009e-03   2.142258e-01   5.174390e-04  
 9.348319e-08   7.852588e-01   8.397079e-04   2.134531e-01   4.191334e-04  
 9.448319e-08   7.936588e-01   6.786482e-04   2.127689e-01   3.388597e-04  
 9.548319e-08   8.020588e-01   5.476454e-04   2.121595e-01   2.735451e-04  
 9.648319e-08   8.104588e-01   4.414090e-04   2.116137e-01   2.205603e-04  
 9.748319e-08   8.188588e-01   3.554695e-04   2.111224e-01   1.776837e-04  
 9.848319e-08   8.272588e-01   2.860899e-04   2.106781e-01   1.430570e-04  
 9.924159e-08   8.336294e-01   2.425935e-04   2.103687e-01   1.213417e-04  
 1.000000e-07   8.400000e-01   2.056909e-04   2.100804e-01   1.029135e-04  
