
time (s)       getData("/nvtc getData("/SNMh getData("/SNMr getData("/SNMw

 0.000000e+00   0.000000e+00   8.997164e-01   8.997170e-01   3.593159e-01  
 1.540706e-11   1.386636e-04   8.997184e-01   8.997190e-01   3.592137e-01  
 2.669458e-11   2.402512e-04   8.997177e-01   8.997183e-01   3.591339e-01  
 4.359325e-11   3.923393e-04   8.997166e-01   8.997172e-01   3.590140e-01  
 7.739060e-11   6.965154e-04   8.997144e-01   8.997150e-01   3.587744e-01  
 1.449853e-10   1.304867e-03   8.997099e-01   8.997105e-01   3.582957e-01  
 2.801746e-10   2.521572e-03   8.997006e-01   8.997013e-01   3.573400e-01  
 5.505534e-10   4.954981e-03   8.996814e-01   8.996821e-01   3.554365e-01  
 1.091311e-09   9.821799e-03   8.996391e-01   8.996399e-01   3.516630e-01  
 2.091311e-09   1.882179e-02   8.995459e-01   8.995469e-01   3.448152e-01  
 3.091311e-09   2.782179e-02   8.994294e-01   8.994307e-01   3.381484e-01  
 4.091311e-09   3.682179e-02   8.992839e-01   8.992855e-01   3.316640e-01  
 5.091311e-09   4.582179e-02   8.991026e-01   8.991046e-01   3.253530e-01  
 6.091311e-09   5.482179e-02   8.988774e-01   8.988799e-01   3.192006e-01  
 7.091311e-09   6.382179e-02   8.985985e-01   8.986018e-01   3.131886e-01  
 8.091311e-09   7.282179e-02   8.982547e-01   8.982587e-01   3.072977e-01  
 9.091311e-09   8.182179e-02   8.978328e-01   8.978379e-01   3.015083e-01  
 1.009131e-08   9.082179e-02   8.973182e-01   8.973245e-01   2.958015e-01  
 1.109131e-08   9.982179e-02   8.966947e-01   8.967026e-01   2.901590e-01  
 1.209131e-08   1.088217e-01   8.959452e-01   8.959549e-01   2.845633e-01  
 1.309131e-08   1.178217e-01   8.950521e-01   8.950641e-01   2.789976e-01  
 1.409131e-08   1.268217e-01   8.939982e-01   8.940129e-01   2.734455e-01  
 1.509131e-08   1.358217e-01   8.927676e-01   8.927856e-01   2.678913e-01  
 1.609131e-08   1.448217e-01   8.913466e-01   8.913684e-01   2.623199e-01  
 1.709131e-08   1.538217e-01   8.897245e-01   8.897506e-01   2.567169e-01  
 1.809131e-08   1.628217e-01   8.878940e-01   8.879251e-01   2.510690e-01  
 1.909131e-08   1.718217e-01   8.858515e-01   8.858882e-01   2.453641e-01  
 2.009131e-08   1.808217e-01   8.835968e-01   8.836396e-01   2.395920e-01  
 2.109131e-08   1.898217e-01   8.811325e-01   8.811819e-01   2.337444e-01  
 2.209131e-08   1.988217e-01   8.784631e-01   8.785197e-01   2.278150e-01  
 2.309131e-08   2.078217e-01   8.755943e-01   8.756587e-01   2.217999e-01  
 2.409131e-08   2.168217e-01   8.725320e-01   8.726049e-01   2.156970e-01  
 2.509131e-08   2.258217e-01   8.692816e-01   8.693639e-01   2.095060e-01  
 2.609131e-08   2.348217e-01   8.658471e-01   8.659401e-01   2.032284e-01  
 2.709131e-08   2.438217e-01   8.622313e-01   8.623363e-01   1.968664e-01  
 2.809131e-08   2.528217e-01   8.584347e-01   8.585538e-01   1.904234e-01  
 2.909131e-08   2.618217e-01   8.544563e-01   8.545916e-01   1.839035e-01  
 3.009131e-08   2.708217e-01   8.502924e-01   8.504469e-01   1.773111e-01  
 3.109131e-08   2.798217e-01   8.459376e-01   8.461148e-01   1.706513e-01  
 3.209131e-08   2.888217e-01   8.413835e-01   8.415880e-01   1.639296e-01  
 3.309131e-08   2.978217e-01   8.366192e-01   8.368566e-01   1.571523e-01  
 3.409131e-08   3.068217e-01   8.316299e-01   8.319075e-01   1.503262e-01  
 3.509131e-08   3.158217e-01   8.263963e-01   8.267235e-01   1.434595e-01  
 3.609131e-08   3.248217e-01   8.208922e-01   8.212816e-01   1.365617e-01  
 3.709131e-08   3.338217e-01   8.150815e-01   8.155499e-01   1.296450e-01  
 3.809131e-08   3.428217e-01   8.089122e-01   8.094836e-01   1.227253e-01  
 3.909131e-08   3.518217e-01   8.023060e-01   8.030156e-01   1.158253e-01  
 4.009131e-08   3.608217e-01   7.951374e-01   7.960404e-01   1.089795e-01  
 4.109131e-08   3.698217e-01   7.871891e-01   7.883810e-01   1.022437e-01  
 4.209131e-08   3.788217e-01   7.780447e-01   7.797137e-01   9.570904e-02  
 4.303232e-08   3.872909e-01   7.675408e-01   7.700605e-01   8.986752e-02  
 4.351165e-08   3.916049e-01   7.609270e-01   7.642361e-01   8.705373e-02  
 4.391958e-08   3.952763e-01   7.541938e-01   7.585659e-01   8.476276e-02  
 4.431822e-08   3.988639e-01   7.461226e-01   7.521708e-01   8.262430e-02  
 4.462629e-08   4.016366e-01   7.384139e-01   7.464988e-01   8.104221e-02  
 4.486591e-08   4.037931e-01   7.312283e-01   7.415795e-01   7.985446e-02  
 4.509295e-08   4.058366e-01   7.232519e-01   7.364880e-01   7.876325e-02  
 4.535860e-08   4.082274e-01   7.122959e-01   7.300230e-01   7.752780e-02  
 4.562942e-08   4.106648e-01   6.992695e-01   7.229598e-01   7.631247e-02  
 4.589543e-08   4.130588e-01   6.847748e-01   7.157062e-01   7.516020e-02  
 4.611631e-08   4.150467e-01   6.716288e-01   7.095630e-01   7.423296e-02  
 4.631115e-08   4.168003e-01   6.593246e-01   7.041258e-01   7.343610e-02  
 4.651861e-08   4.186675e-01   6.456046e-01   6.983712e-01   7.260824e-02  
 4.675778e-08   4.208200e-01   6.291186e-01   6.918311e-01   7.167871e-02  
 4.701828e-08   4.231645e-01   6.104819e-01   6.848634e-01   7.069466e-02  
 4.730596e-08   4.257536e-01   5.892219e-01   6.773846e-01   6.963975e-02  
 4.764565e-08   4.288108e-01   5.633810e-01   6.688561e-01   6.843353e-02  
 4.805320e-08   4.324788e-01   5.315716e-01   6.590420e-01   6.703720e-02  
 4.852434e-08   4.367190e-01   4.940425e-01   6.482178e-01   6.548438e-02  
 4.904863e-08   4.414377e-01   4.517618e-01   6.367516e-01   6.382406e-02  
 4.961045e-08   4.464940e-01   4.063774e-01   6.250487e-01   6.211361e-02  
 5.018858e-08   4.516973e-01   3.601802e-01   6.135467e-01   6.041787e-02  
 5.076571e-08   4.568914e-01   3.151948e-01   6.025359e-01   5.878196e-02  
 5.133131e-08   4.619818e-01   2.728439e-01   5.921432e-01   5.722741e-02  
 5.187472e-08   4.668724e-01   2.344501e-01   5.824861e-01   5.577445e-02  
 5.237555e-08   4.713799e-01   2.018229e-01   5.738406e-01   5.446728e-02  
 5.280095e-08   4.752085e-01   1.770457e-01   5.666723e-01   5.337919e-02  
 5.313155e-08   4.781840e-01   1.603858e-01   5.612045e-01   5.254678e-02  
 5.339081e-08   4.805173e-01   1.493074e-01   5.569762e-01   5.190169e-02  
 5.364132e-08   4.827718e-01   1.403772e-01   5.529383e-01   5.128458e-02  
 5.390604e-08   4.851543e-01   1.326984e-01   5.487200e-01   5.063884e-02  
 5.415945e-08   4.874350e-01   1.267490e-01   5.447272e-01   5.002666e-02  
 5.437510e-08   4.893759e-01   1.225282e-01   5.413629e-01   4.951017e-02  
 5.458366e-08   4.912529e-01   1.190117e-01   5.381376e-01   4.901445e-02  
 5.481975e-08   4.933777e-01   1.155477e-01   5.345194e-01   4.845772e-02  
 5.509139e-08   4.958225e-01   1.120781e-01   5.303979e-01   4.782279e-02  
 5.539118e-08   4.985206e-01   1.087277e-01   5.258995e-01   4.712892e-02  
 5.573295e-08   5.015965e-01   1.053590e-01   5.208329e-01   4.634639e-02  
 5.614517e-08   5.053065e-01   1.017606e-01   5.148055e-01   4.541422e-02  
 5.665058e-08   5.098552e-01   9.784430e-02   5.075347e-01   4.428816e-02  
 5.727075e-08   5.154367e-01   9.356116e-02   4.987828e-01   4.293076e-02  
 5.804659e-08   5.224193e-01   8.876198e-02   4.880814e-01   4.126879e-02  
 5.904150e-08   5.313735e-01   8.322790e-02   4.747332e-01   3.919359e-02  
 6.004150e-08   5.403735e-01   7.815727e-02   4.617110e-01   3.716820e-02  
 6.104150e-08   5.493735e-01   7.344741e-02   4.490580e-01   3.520072e-02  
 6.204150e-08   5.583735e-01   6.902030e-02   4.367530e-01   3.328895e-02  
 6.304150e-08   5.673735e-01   6.482621e-02   4.247795e-01   3.143111e-02  
 6.404150e-08   5.763735e-01   6.083151e-02   4.131246e-01   2.962571e-02  
 6.504150e-08   5.853735e-01   5.701242e-02   4.017787e-01   2.787154e-02  
 6.604150e-08   5.943735e-01   5.335157e-02   3.907346e-01   2.616758e-02  
 6.704150e-08   6.033735e-01   4.983592e-02   3.799878e-01   2.451299e-02  
 6.804150e-08   6.123735e-01   4.645550e-02   3.695362e-01   2.290714e-02  
 6.904150e-08   6.213735e-01   4.320261e-02   3.593801e-01   2.134954e-02  
 7.004150e-08   6.303735e-01   4.007135e-02   3.495220e-01   1.983991e-02  
 7.104150e-08   6.393735e-01   3.705725e-02   3.399676e-01   1.837821e-02  
 7.204150e-08   6.483735e-01   3.415716e-02   3.307258e-01   1.696461e-02  
 7.304150e-08   6.573735e-01   3.136909e-02   3.218094e-01   1.559961e-02  
 7.404150e-08   6.663735e-01   2.869220e-02   3.132367e-01   1.428400e-02  
 7.504150e-08   6.753735e-01   2.612675e-02   3.050320e-01   1.301899e-02  
 7.604150e-08   6.843735e-01   2.367413e-02   2.972282e-01   1.180615e-02  
 7.704150e-08   6.933735e-01   2.133675e-02   2.898673e-01   1.064747e-02  
 7.804150e-08   7.023735e-01   1.911799e-02   2.830008e-01   9.545325e-03  
 7.904150e-08   7.113735e-01   1.702201e-02   2.766867e-01   8.502367e-03  
 8.004150e-08   7.203735e-01   1.505349e-02   2.709803e-01   7.521451e-03  
 8.104150e-08   7.293735e-01   1.321728e-02   2.659207e-01   6.605432e-03  
 8.204150e-08   7.383735e-01   1.151789e-02   2.615165e-01   5.756939e-03  
 8.304150e-08   7.473735e-01   9.959011e-03   2.577397e-01   4.978112e-03  
 8.404150e-08   7.563735e-01   8.542921e-03   2.545330e-01   4.270328e-03  
 8.504150e-08   7.653735e-01   7.270018e-03   2.518227e-01   3.633957e-03  
 8.604150e-08   7.743735e-01   6.138435e-03   2.495329e-01   3.068181e-03  
 8.704150e-08   7.833735e-01   5.143867e-03   2.475938e-01   2.570916e-03  
 8.804150e-08   7.923735e-01   4.279637e-03   2.459450e-01   2.138855e-03  
 8.904150e-08   8.013735e-01   3.536986e-03   2.445361e-01   1.767626e-03  
 9.004150e-08   8.103735e-01   2.905561e-03   2.433258e-01   1.452041e-03  
 9.104150e-08   8.193735e-01   2.373992e-03   2.422802e-01   1.186402e-03  
 9.204150e-08   8.283735e-01   1.930509e-03   2.413718e-01   9.648088e-04  
 9.304150e-08   8.373735e-01   1.563484e-03   2.405781e-01   7.814338e-04  
 9.404150e-08   8.463735e-01   1.261871e-03   2.398807e-01   6.307479e-04  
 9.504150e-08   8.553735e-01   1.015519e-03   2.392645e-01   5.076704e-04  
 9.604150e-08   8.643735e-01   8.153398e-04   2.387171e-01   4.076580e-04  
 9.704150e-08   8.733735e-01   6.533851e-04   2.382285e-01   3.267377e-04  
 9.804150e-08   8.823735e-01   5.228280e-04   2.377901e-01   2.614990e-04  
 9.904150e-08   8.913735e-01   4.178939e-04   2.373951e-01   2.090578e-04  
 1.000000e-07   9.000000e-01   3.368916e-04   2.370518e-01   1.685712e-04  
