
time (s)       getData("/nvtc getData("/SNMh getData("/SNMr getData("/SNMw

 0.000000e+00   0.000000e+00   1.269450e+00   1.269451e+00   5.446159e-01  
 1.318827e-11   1.674911e-04   1.269452e+00   1.269453e+00   5.444939e-01  
 2.261192e-11   2.871714e-04   1.269450e+00   1.269451e+00   5.444524e-01  
 3.736934e-11   4.745907e-04   1.269447e+00   1.269449e+00   5.443891e-01  
 6.688420e-11   8.494293e-04   1.269442e+00   1.269444e+00   5.442623e-01  
 1.259139e-10   1.599106e-03   1.269432e+00   1.269433e+00   5.440080e-01  
 1.899653e-10   2.412560e-03   1.269420e+00   1.269422e+00   5.437307e-01  
 2.595451e-10   3.296223e-03   1.269407e+00   1.269409e+00   5.434279e-01  
 3.311026e-10   4.205004e-03   1.269394e+00   1.269395e+00   5.431149e-01  
 4.052139e-10   5.146217e-03   1.269380e+00   1.269381e+00   5.427890e-01  
 4.814846e-10   6.114855e-03   1.269365e+00   1.269366e+00   5.424517e-01  
 5.601691e-10   7.114148e-03   1.269349e+00   1.269350e+00   5.421017e-01  
 6.413366e-10   8.144975e-03   1.269332e+00   1.269334e+00   5.417386e-01  
 7.251742e-10   9.209712e-03   1.269314e+00   1.269316e+00   5.413614e-01  
 8.118481e-10   1.031047e-02   1.269295e+00   1.269297e+00   5.409690e-01  
 9.015608e-10   1.144982e-02   1.269275e+00   1.269277e+00   5.405603e-01  
 9.945293e-10   1.263052e-02   1.269254e+00   1.269256e+00   5.401341e-01  
 1.090998e-09   1.385567e-02   1.269231e+00   1.269233e+00   5.396889e-01  
 1.191238e-09   1.512873e-02   1.269207e+00   1.269209e+00   5.392233e-01  
 1.282791e-09   1.629144e-02   1.269184e+00   1.269186e+00   5.387952e-01  
 1.392628e-09   1.768637e-02   1.269155e+00   1.269157e+00   5.382782e-01  
 1.492589e-09   1.895588e-02   1.269129e+00   1.269131e+00   5.378045e-01  
 1.612090e-09   2.047355e-02   1.269096e+00   1.269098e+00   5.372340e-01  
 1.720814e-09   2.185434e-02   1.269065e+00   1.269067e+00   5.367113e-01  
 1.827715e-09   2.321198e-02   1.269033e+00   1.269036e+00   5.361937e-01  
 1.940064e-09   2.463881e-02   1.268999e+00   1.269001e+00   5.356461e-01  
 2.056135e-09   2.611292e-02   1.268963e+00   1.268965e+00   5.350764e-01  
 2.176221e-09   2.763801e-02   1.268923e+00   1.268926e+00   5.344827e-01  
 2.301666e-09   2.923116e-02   1.268881e+00   1.268883e+00   5.338579e-01  
 2.432962e-09   3.089862e-02   1.268835e+00   1.268837e+00   5.331991e-01  
 2.570592e-09   3.264652e-02   1.268784e+00   1.268787e+00   5.325031e-01  
 2.715279e-09   3.448404e-02   1.268729e+00   1.268732e+00   5.317655e-01  
 2.867784e-09   3.642086e-02   1.268669e+00   1.268672e+00   5.309816e-01  
 3.028950e-09   3.846767e-02   1.268601e+00   1.268605e+00   5.301460e-01  
 3.199773e-09   4.063712e-02   1.268527e+00   1.268530e+00   5.292525e-01  
 3.381423e-09   4.294408e-02   1.268443e+00   1.268447e+00   5.282935e-01  
 3.575283e-09   4.540609e-02   1.268349e+00   1.268353e+00   5.272600e-01  
 3.783004e-09   4.804416e-02   1.268242e+00   1.268246e+00   5.261415e-01  
 4.006588e-09   5.088367e-02   1.268120e+00   1.268124e+00   5.249248e-01  
 4.248479e-09   5.395569e-02   1.267978e+00   1.267983e+00   5.235937e-01  
 4.511709e-09   5.729870e-02   1.267814e+00   1.267819e+00   5.221281e-01  
 4.800090e-09   6.096115e-02   1.267618e+00   1.267624e+00   5.205024e-01  
 5.118503e-09   6.500499e-02   1.267385e+00   1.267391e+00   5.186833e-01  
 5.473314e-09   6.951109e-02   1.267099e+00   1.267106e+00   5.166272e-01  
 5.873021e-09   7.458736e-02   1.266744e+00   1.266752e+00   5.142746e-01  
 6.329277e-09   8.038182e-02   1.266291e+00   1.266300e+00   5.115429e-01  
 6.858582e-09   8.710399e-02   1.265697e+00   1.265707e+00   5.083129e-01  
 7.485228e-09   9.506239e-02   1.264888e+00   1.264900e+00   5.044049e-01  
 8.246742e-09   1.047336e-01   1.263735e+00   1.263750e+00   4.995329e-01  
 9.204767e-09   1.169005e-01   1.261992e+00   1.262012e+00   4.932087e-01  
 1.020476e-08   1.296005e-01   1.259795e+00   1.259820e+00   4.863667e-01  
 1.120476e-08   1.423005e-01   1.257190e+00   1.257222e+00   4.792654e-01  
 1.220476e-08   1.550005e-01   1.254171e+00   1.254211e+00   4.718902e-01  
 1.320476e-08   1.677005e-01   1.250750e+00   1.250798e+00   4.642278e-01  
 1.420476e-08   1.804005e-01   1.246947e+00   1.247005e+00   4.562701e-01  
 1.520476e-08   1.931005e-01   1.242793e+00   1.242861e+00   4.480149e-01  
 1.620476e-08   2.058005e-01   1.238319e+00   1.238400e+00   4.394672e-01  
 1.720476e-08   2.185005e-01   1.233557e+00   1.233651e+00   4.306371e-01  
 1.820476e-08   2.312005e-01   1.228529e+00   1.228640e+00   4.215385e-01  
 1.920476e-08   2.439005e-01   1.223255e+00   1.223385e+00   4.121866e-01  
 2.020476e-08   2.566005e-01   1.217746e+00   1.217900e+00   4.025962e-01  
 2.120476e-08   2.693005e-01   1.212010e+00   1.212192e+00   3.927814e-01  
 2.220476e-08   2.820005e-01   1.206047e+00   1.206265e+00   3.827547e-01  
 2.320476e-08   2.947005e-01   1.199859e+00   1.200120e+00   3.725276e-01  
 2.420476e-08   3.074005e-01   1.193442e+00   1.193757e+00   3.621110e-01  
 2.520476e-08   3.201005e-01   1.186794e+00   1.187177e+00   3.515156e-01  
 2.620476e-08   3.328005e-01   1.179912e+00   1.180379e+00   3.407524e-01  
 2.720476e-08   3.455005e-01   1.172794e+00   1.173365e+00   3.298329e-01  
 2.820476e-08   3.582005e-01   1.165435e+00   1.166140e+00   3.187695e-01  
 2.920476e-08   3.709005e-01   1.157834e+00   1.158706e+00   3.075756e-01  
 3.020476e-08   3.836005e-01   1.149987e+00   1.151070e+00   2.962657e-01  
 3.120476e-08   3.963005e-01   1.141889e+00   1.143240e+00   2.848553e-01  
 3.220476e-08   4.090005e-01   1.133534e+00   1.135223e+00   2.733616e-01  
 3.320476e-08   4.217005e-01   1.124913e+00   1.127028e+00   2.618031e-01  
 3.420476e-08   4.344005e-01   1.116013e+00   1.118664e+00   2.502004e-01  
 3.520476e-08   4.471005e-01   1.106813e+00   1.110136e+00   2.385770e-01  
 3.620476e-08   4.598005e-01   1.097285e+00   1.101449e+00   2.269602e-01  
 3.720476e-08   4.725005e-01   1.087382e+00   1.092596e+00   2.153837e-01  
 3.820476e-08   4.852005e-01   1.077034e+00   1.083564e+00   2.038926e-01  
 3.920476e-08   4.979005e-01   1.066130e+00   1.074319e+00   1.925530e-01  
 4.020476e-08   5.106005e-01   1.054479e+00   1.064801e+00   1.814726e-01  
 4.120476e-08   5.233005e-01   1.041731e+00   1.054905e+00   1.708393e-01  
 4.220476e-08   5.360005e-01   1.027176e+00   1.044447e+00   1.609610e-01  
 4.316226e-08   5.481607e-01   1.009996e+00   1.033614e+00   1.525521e-01  
 4.406054e-08   5.595689e-01   9.876055e-01   1.022293e+00   1.457367e-01  
 4.474627e-08   5.682777e-01   9.617952e-01   1.012506e+00   1.411692e-01  
 4.523995e-08   5.745474e-01   9.358029e-01   1.004636e+00   1.381586e-01  
 4.563139e-08   5.795186e-01   9.102651e-01   9.978209e-01   1.359075e-01  
 4.598134e-08   5.839630e-01   8.841778e-01   9.912767e-01   1.339812e-01  
 4.632555e-08   5.883344e-01   8.559626e-01   9.844384e-01   1.321550e-01  
 4.667900e-08   5.928233e-01   8.247970e-01   9.770463e-01   1.303414e-01  
 4.705320e-08   5.975757e-01   7.898225e-01   9.688861e-01   1.284804e-01  
 4.745845e-08   6.027223e-01   7.501296e-01   9.597651e-01   1.265245e-01  
 4.790641e-08   6.084114e-01   7.046341e-01   9.494671e-01   1.244245e-01  
 4.841749e-08   6.149021e-01   6.514348e-01   9.375875e-01   1.220969e-01  
 4.904056e-08   6.228152e-01   5.859781e-01   9.230846e-01   1.193425e-01  
 4.979264e-08   6.323665e-01   5.082279e-01   9.057226e-01   1.161193e-01  
 5.055221e-08   6.420131e-01   4.336804e-01   8.884546e-01   1.129575e-01  
 5.119993e-08   6.502391e-01   3.752650e-01   8.739775e-01   1.103242e-01  
 5.173627e-08   6.570506e-01   3.317544e-01   8.621688e-01   1.081819e-01  
 5.220191e-08   6.629643e-01   2.984957e-01   8.520477e-01   1.063474e-01  
 5.261308e-08   6.681862e-01   2.734419e-01   8.432101e-01   1.047455e-01  
 5.297803e-08   6.728210e-01   2.551551e-01   8.354425e-01   1.033371e-01  
 5.331048e-08   6.770432e-01   2.418023e-01   8.284279e-01   1.020644e-01  
 5.362971e-08   6.810973e-01   2.315760e-01   8.217462e-01   1.008513e-01  
 5.395693e-08   6.852531e-01   2.231472e-01   8.149507e-01   9.961640e-02  
 5.431209e-08   6.897635e-01   2.156954e-01   8.076353e-01   9.828566e-02  
 5.471491e-08   6.948793e-01   2.087054e-01   7.994120e-01   9.678787e-02  
 5.518773e-08   7.008842e-01   2.018088e-01   7.898573e-01   9.504487e-02  
 5.575716e-08   7.081160e-01   1.947069e-01   7.784868e-01   9.296647e-02  
 5.645624e-08   7.169943e-01   1.871193e-01   7.647243e-01   9.044440e-02  
 5.732703e-08   7.280533e-01   1.787590e-01   7.478744e-01   8.734631e-02  
 5.832703e-08   7.407533e-01   1.700627e-01   7.289114e-01   8.384538e-02  
 5.932703e-08   7.534533e-01   1.620246e-01   7.103498e-01   8.040296e-02  
 6.032703e-08   7.661533e-01   1.544355e-01   6.921809e-01   7.701744e-02  
 6.132703e-08   7.788533e-01   1.471885e-01   6.743999e-01   7.368790e-02  
 6.232703e-08   7.915533e-01   1.402158e-01   6.570059e-01   7.041393e-02  
 6.332703e-08   8.042533e-01   1.334739e-01   6.400011e-01   6.719553e-02  
 6.432703e-08   8.169533e-01   1.269336e-01   6.233906e-01   6.403304e-02  
 6.532703e-08   8.296533e-01   1.205750e-01   6.071824e-01   6.092709e-02  
 6.632703e-08   8.423533e-01   1.143844e-01   5.913872e-01   5.787851e-02  
 6.732703e-08   8.550533e-01   1.083522e-01   5.760183e-01   5.488830e-02  
 6.832703e-08   8.677533e-01   1.024717e-01   5.610919e-01   5.195755e-02  
 6.932703e-08   8.804533e-01   9.673841e-02   5.466273e-01   4.908742e-02  
 7.032703e-08   8.931533e-01   9.114910e-02   5.326477e-01   4.627906e-02  
 7.132703e-08   9.058533e-01   8.570167e-02   5.191809e-01   4.353361e-02  
 7.232703e-08   9.185533e-01   8.039461e-02   5.062606e-01   4.085209e-02  
 7.332703e-08   9.312533e-01   7.522683e-02   4.939285e-01   3.823541e-02  
 7.432703e-08   9.439533e-01   7.019739e-02   4.822362e-01   3.568432e-02  
 7.532703e-08   9.566533e-01   6.530544e-02   4.712464e-01   3.319941e-02  
 7.632703e-08   9.693533e-01   6.055016e-02   4.610317e-01   3.078112e-02  
 7.732703e-08   9.820533e-01   5.593077e-02   4.516676e-01   2.842978e-02  
 7.832703e-08   9.947533e-01   5.144669e-02   4.432168e-01   2.614571e-02  
 7.932703e-08   1.007453e+00   4.709784e-02   4.357083e-01   2.392939e-02  
 8.032703e-08   1.020153e+00   4.288500e-02   4.291224e-01   2.178170e-02  
 8.132703e-08   1.032853e+00   3.881042e-02   4.233917e-01   1.970416e-02  
 8.232703e-08   1.045553e+00   3.487842e-02   4.184191e-01   1.769932e-02  
 8.332703e-08   1.058253e+00   3.109609e-02   4.141004e-01   1.577110e-02  
 8.432703e-08   1.070953e+00   2.747399e-02   4.103406e-01   1.392512e-02  
 8.532703e-08   1.083653e+00   2.402646e-02   4.070615e-01   1.216894e-02  
 8.632703e-08   1.096353e+00   2.077167e-02   4.042020e-01   1.051197e-02  
 8.732703e-08   1.109053e+00   1.773087e-02   4.017157e-01   8.965161e-03  
 8.832703e-08   1.121753e+00   1.492686e-02   3.995662e-01   7.540162e-03  
 8.932703e-08   1.134453e+00   1.238159e-02   3.977228e-01   6.248103e-03  
 9.032703e-08   1.147153e+00   1.011307e-02   3.961569e-01   5.097999e-03  
 9.132703e-08   1.159853e+00   8.132178e-03   3.948401e-01   4.095113e-03  
 9.232703e-08   1.172553e+00   6.440010e-03   3.937426e-01   3.239665e-03  
 9.332703e-08   1.185253e+00   5.026756e-03   3.928347e-01   2.526284e-03  
 9.432703e-08   1.197953e+00   3.872338e-03   3.920870e-01   1.944404e-03  
 9.532703e-08   1.210653e+00   2.948805e-03   3.914723e-01   1.479533e-03  
 9.618014e-08   1.221487e+00   2.319092e-03   3.910349e-01   1.162922e-03  
 9.681671e-08   1.229572e+00   1.930857e-03   3.907524e-01   9.678859e-04  
 9.729601e-08   1.235659e+00   1.678809e-03   3.905612e-01   8.413359e-04  
 9.767112e-08   1.240423e+00   1.503186e-03   3.904231e-01   7.531927e-04  
 9.797397e-08   1.244269e+00   1.374071e-03   3.903184e-01   6.884105e-04  
 9.822720e-08   1.247485e+00   1.274191e-03   3.902353e-01   6.383076e-04  
 9.844580e-08   1.250261e+00   1.193521e-03   3.901665e-01   5.978487e-04  
 9.863908e-08   1.252716e+00   1.126252e-03   3.901080e-01   5.641160e-04  
 9.881315e-08   1.254927e+00   1.068768e-03   3.900570e-01   5.352940e-04  
 9.897222e-08   1.256947e+00   1.018698e-03   3.900118e-01   5.101925e-04  
 9.911916e-08   1.258813e+00   9.744434e-04   3.899712e-01   4.880081e-04  
 9.925607e-08   1.260552e+00   9.348767e-04   3.899343e-01   4.681759e-04  
 9.938446e-08   1.262182e+00   8.991754e-04   3.899004e-01   4.502826e-04  
 9.950551e-08   1.263720e+00   8.667195e-04   3.898693e-01   4.340172e-04  
 9.962014e-08   1.265175e+00   8.370297e-04   3.898403e-01   4.191391e-04  
 9.972908e-08   1.266559e+00   8.097261e-04   3.898134e-01   4.054577e-04  
 9.983292e-08   1.267878e+00   7.845020e-04   3.897882e-01   3.928191e-04  
 9.993217e-08   1.269138e+00   7.611057e-04   3.897645e-01   3.810971e-04  
 1.000000e-07   1.270000e+00   7.455085e-04   3.897486e-01   3.732828e-04  
